# Pulseq sequence format
# Created by JEMRIS 2.8

[DEFINITIONS]
Num_Blocks 1536
Rot_Matrix 0 -1 -0 1 0 -0 0 0 1

# Format of blocks:
#  #  D RF  GX  GY  GZ ADC
[BLOCKS]
   1  0  1   0   0   1  0
   2  1  0   0   0   0  0
   3  0  0   2   3   4  0
   4  0  0   5   0   0  1
   5  0  0   6   7   8  0
   6  2  0   0   0   0  0
   7  0  1   0   0   1  0
   8  1  0   0   0   0  0
   9  0  0   2   9   4  0
  10  0  0   5   0   0  1
  11  0  0   6  10   8  0
  12  2  0   0   0   0  0
  13  0  1   0   0   1  0
  14  1  0   0   0   0  0
  15  0  0   2  11   4  0
  16  0  0   5   0   0  1
  17  0  0   6  12   8  0
  18  2  0   0   0   0  0
  19  0  1   0   0   1  0
  20  1  0   0   0   0  0
  21  0  0   2  13   4  0
  22  0  0   5   0   0  1
  23  0  0   6  14   8  0
  24  2  0   0   0   0  0
  25  0  1   0   0   1  0
  26  1  0   0   0   0  0
  27  0  0   2  15   4  0
  28  0  0   5   0   0  1
  29  0  0   6  16   8  0
  30  2  0   0   0   0  0
  31  0  1   0   0   1  0
  32  1  0   0   0   0  0
  33  0  0   2  17   4  0
  34  0  0   5   0   0  1
  35  0  0   6  18   8  0
  36  2  0   0   0   0  0
  37  0  1   0   0   1  0
  38  1  0   0   0   0  0
  39  0  0   2  19   4  0
  40  0  0   5   0   0  1
  41  0  0   6  20   8  0
  42  2  0   0   0   0  0
  43  0  1   0   0   1  0
  44  1  0   0   0   0  0
  45  0  0   2  21   4  0
  46  0  0   5   0   0  1
  47  0  0   6  22   8  0
  48  2  0   0   0   0  0
  49  0  1   0   0   1  0
  50  1  0   0   0   0  0
  51  0  0   2  23   4  0
  52  0  0   5   0   0  1
  53  0  0   6  24   8  0
  54  2  0   0   0   0  0
  55  0  1   0   0   1  0
  56  1  0   0   0   0  0
  57  0  0   2  25   4  0
  58  0  0   5   0   0  1
  59  0  0   6  26   8  0
  60  2  0   0   0   0  0
  61  0  1   0   0   1  0
  62  1  0   0   0   0  0
  63  0  0   2  27   4  0
  64  0  0   5   0   0  1
  65  0  0   6  28   8  0
  66  2  0   0   0   0  0
  67  0  1   0   0   1  0
  68  1  0   0   0   0  0
  69  0  0   2  29   4  0
  70  0  0   5   0   0  1
  71  0  0   6  30   8  0
  72  2  0   0   0   0  0
  73  0  1   0   0   1  0
  74  1  0   0   0   0  0
  75  0  0   2  31   4  0
  76  0  0   5   0   0  1
  77  0  0   6  32   8  0
  78  2  0   0   0   0  0
  79  0  1   0   0   1  0
  80  1  0   0   0   0  0
  81  0  0   2  33   4  0
  82  0  0   5   0   0  1
  83  0  0   6  34   8  0
  84  2  0   0   0   0  0
  85  0  1   0   0   1  0
  86  1  0   0   0   0  0
  87  0  0   2  35   4  0
  88  0  0   5   0   0  1
  89  0  0   6  36   8  0
  90  2  0   0   0   0  0
  91  0  1   0   0   1  0
  92  1  0   0   0   0  0
  93  0  0   2  37   4  0
  94  0  0   5   0   0  1
  95  0  0   6  38   8  0
  96  2  0   0   0   0  0
  97  0  1   0   0   1  0
  98  1  0   0   0   0  0
  99  0  0   2  39   4  0
 100  0  0   5   0   0  1
 101  0  0   6  40   8  0
 102  2  0   0   0   0  0
 103  0  1   0   0   1  0
 104  1  0   0   0   0  0
 105  0  0   2  41   4  0
 106  0  0   5   0   0  1
 107  0  0   6  42   8  0
 108  2  0   0   0   0  0
 109  0  1   0   0   1  0
 110  1  0   0   0   0  0
 111  0  0   2  43   4  0
 112  0  0   5   0   0  1
 113  0  0   6  44   8  0
 114  2  0   0   0   0  0
 115  0  1   0   0   1  0
 116  1  0   0   0   0  0
 117  0  0   2  45   4  0
 118  0  0   5   0   0  1
 119  0  0   6  46   8  0
 120  2  0   0   0   0  0
 121  0  1   0   0   1  0
 122  1  0   0   0   0  0
 123  0  0   2  47   4  0
 124  0  0   5   0   0  1
 125  0  0   6  48   8  0
 126  2  0   0   0   0  0
 127  0  1   0   0   1  0
 128  1  0   0   0   0  0
 129  0  0   2  49   4  0
 130  0  0   5   0   0  1
 131  0  0   6  50   8  0
 132  2  0   0   0   0  0
 133  0  1   0   0   1  0
 134  1  0   0   0   0  0
 135  0  0   2  51   4  0
 136  0  0   5   0   0  1
 137  0  0   6  52   8  0
 138  2  0   0   0   0  0
 139  0  1   0   0   1  0
 140  1  0   0   0   0  0
 141  0  0   2  53   4  0
 142  0  0   5   0   0  1
 143  0  0   6  54   8  0
 144  2  0   0   0   0  0
 145  0  1   0   0   1  0
 146  1  0   0   0   0  0
 147  0  0   2  55   4  0
 148  0  0   5   0   0  1
 149  0  0   6  56   8  0
 150  2  0   0   0   0  0
 151  0  1   0   0   1  0
 152  1  0   0   0   0  0
 153  0  0   2  57   4  0
 154  0  0   5   0   0  1
 155  0  0   6  58   8  0
 156  2  0   0   0   0  0
 157  0  1   0   0   1  0
 158  1  0   0   0   0  0
 159  0  0   2  59   4  0
 160  0  0   5   0   0  1
 161  0  0   6  60   8  0
 162  2  0   0   0   0  0
 163  0  1   0   0   1  0
 164  1  0   0   0   0  0
 165  0  0   2  61   4  0
 166  0  0   5   0   0  1
 167  0  0   6  62   8  0
 168  2  0   0   0   0  0
 169  0  1   0   0   1  0
 170  1  0   0   0   0  0
 171  0  0   2  63   4  0
 172  0  0   5   0   0  1
 173  0  0   6  64   8  0
 174  2  0   0   0   0  0
 175  0  1   0   0   1  0
 176  1  0   0   0   0  0
 177  0  0   2  65   4  0
 178  0  0   5   0   0  1
 179  0  0   6  66   8  0
 180  2  0   0   0   0  0
 181  0  1   0   0   1  0
 182  1  0   0   0   0  0
 183  0  0   2  67   4  0
 184  0  0   5   0   0  1
 185  0  0   6  68   8  0
 186  2  0   0   0   0  0
 187  0  1   0   0   1  0
 188  1  0   0   0   0  0
 189  0  0   2  69   4  0
 190  0  0   5   0   0  1
 191  0  0   6  70   8  0
 192  2  0   0   0   0  0
 193  0  1   0   0   1  0
 194  1  0   0   0   0  0
 195  0  0   2  71   4  0
 196  0  0   5   0   0  1
 197  0  0   6  72   8  0
 198  2  0   0   0   0  0
 199  0  1   0   0   1  0
 200  1  0   0   0   0  0
 201  0  0   2  73   4  0
 202  0  0   5   0   0  1
 203  0  0   6  74   8  0
 204  2  0   0   0   0  0
 205  0  1   0   0   1  0
 206  1  0   0   0   0  0
 207  0  0   2  75   4  0
 208  0  0   5   0   0  1
 209  0  0   6  76   8  0
 210  2  0   0   0   0  0
 211  0  1   0   0   1  0
 212  1  0   0   0   0  0
 213  0  0   2  77   4  0
 214  0  0   5   0   0  1
 215  0  0   6  78   8  0
 216  2  0   0   0   0  0
 217  0  1   0   0   1  0
 218  1  0   0   0   0  0
 219  0  0   2  79   4  0
 220  0  0   5   0   0  1
 221  0  0   6  80   8  0
 222  2  0   0   0   0  0
 223  0  1   0   0   1  0
 224  1  0   0   0   0  0
 225  0  0   2  81   4  0
 226  0  0   5   0   0  1
 227  0  0   6  82   8  0
 228  2  0   0   0   0  0
 229  0  1   0   0   1  0
 230  1  0   0   0   0  0
 231  0  0   2  83   4  0
 232  0  0   5   0   0  1
 233  0  0   6  84   8  0
 234  2  0   0   0   0  0
 235  0  1   0   0   1  0
 236  1  0   0   0   0  0
 237  0  0   2  85   4  0
 238  0  0   5   0   0  1
 239  0  0   6  86   8  0
 240  2  0   0   0   0  0
 241  0  1   0   0   1  0
 242  1  0   0   0   0  0
 243  0  0   2  87   4  0
 244  0  0   5   0   0  1
 245  0  0   6  88   8  0
 246  2  0   0   0   0  0
 247  0  1   0   0   1  0
 248  1  0   0   0   0  0
 249  0  0   2  89   4  0
 250  0  0   5   0   0  1
 251  0  0   6  90   8  0
 252  2  0   0   0   0  0
 253  0  1   0   0   1  0
 254  1  0   0   0   0  0
 255  0  0   2  91   4  0
 256  0  0   5   0   0  1
 257  0  0   6  92   8  0
 258  2  0   0   0   0  0
 259  0  1   0   0   1  0
 260  1  0   0   0   0  0
 261  0  0   2  93   4  0
 262  0  0   5   0   0  1
 263  0  0   6  94   8  0
 264  2  0   0   0   0  0
 265  0  1   0   0   1  0
 266  1  0   0   0   0  0
 267  0  0   2  95   4  0
 268  0  0   5   0   0  1
 269  0  0   6  96   8  0
 270  2  0   0   0   0  0
 271  0  1   0   0   1  0
 272  1  0   0   0   0  0
 273  0  0   2  97   4  0
 274  0  0   5   0   0  1
 275  0  0   6  98   8  0
 276  2  0   0   0   0  0
 277  0  1   0   0   1  0
 278  1  0   0   0   0  0
 279  0  0   2  99   4  0
 280  0  0   5   0   0  1
 281  0  0   6 100   8  0
 282  2  0   0   0   0  0
 283  0  1   0   0   1  0
 284  1  0   0   0   0  0
 285  0  0   2 101   4  0
 286  0  0   5   0   0  1
 287  0  0   6 102   8  0
 288  2  0   0   0   0  0
 289  0  1   0   0   1  0
 290  1  0   0   0   0  0
 291  0  0   2 103   4  0
 292  0  0   5   0   0  1
 293  0  0   6 104   8  0
 294  2  0   0   0   0  0
 295  0  1   0   0   1  0
 296  1  0   0   0   0  0
 297  0  0   2 105   4  0
 298  0  0   5   0   0  1
 299  0  0   6 106   8  0
 300  2  0   0   0   0  0
 301  0  1   0   0   1  0
 302  1  0   0   0   0  0
 303  0  0   2 107   4  0
 304  0  0   5   0   0  1
 305  0  0   6 108   8  0
 306  2  0   0   0   0  0
 307  0  1   0   0   1  0
 308  1  0   0   0   0  0
 309  0  0   2 109   4  0
 310  0  0   5   0   0  1
 311  0  0   6 110   8  0
 312  2  0   0   0   0  0
 313  0  1   0   0   1  0
 314  1  0   0   0   0  0
 315  0  0   2 111   4  0
 316  0  0   5   0   0  1
 317  0  0   6 112   8  0
 318  2  0   0   0   0  0
 319  0  1   0   0   1  0
 320  1  0   0   0   0  0
 321  0  0   2 113   4  0
 322  0  0   5   0   0  1
 323  0  0   6 114   8  0
 324  2  0   0   0   0  0
 325  0  1   0   0   1  0
 326  1  0   0   0   0  0
 327  0  0   2 115   4  0
 328  0  0   5   0   0  1
 329  0  0   6 116   8  0
 330  2  0   0   0   0  0
 331  0  1   0   0   1  0
 332  1  0   0   0   0  0
 333  0  0   2 117   4  0
 334  0  0   5   0   0  1
 335  0  0   6 118   8  0
 336  2  0   0   0   0  0
 337  0  1   0   0   1  0
 338  1  0   0   0   0  0
 339  0  0   2 119   4  0
 340  0  0   5   0   0  1
 341  0  0   6 120   8  0
 342  2  0   0   0   0  0
 343  0  1   0   0   1  0
 344  1  0   0   0   0  0
 345  0  0   2 121   4  0
 346  0  0   5   0   0  1
 347  0  0   6 122   8  0
 348  2  0   0   0   0  0
 349  0  1   0   0   1  0
 350  1  0   0   0   0  0
 351  0  0   2 123   4  0
 352  0  0   5   0   0  1
 353  0  0   6 124   8  0
 354  2  0   0   0   0  0
 355  0  1   0   0   1  0
 356  1  0   0   0   0  0
 357  0  0   2 125   4  0
 358  0  0   5   0   0  1
 359  0  0   6 126   8  0
 360  2  0   0   0   0  0
 361  0  1   0   0   1  0
 362  1  0   0   0   0  0
 363  0  0   2 127   4  0
 364  0  0   5   0   0  1
 365  0  0   6 128   8  0
 366  2  0   0   0   0  0
 367  0  1   0   0   1  0
 368  1  0   0   0   0  0
 369  0  0   2 129   4  0
 370  0  0   5   0   0  1
 371  0  0   6 130   8  0
 372  2  0   0   0   0  0
 373  0  1   0   0   1  0
 374  1  0   0   0   0  0
 375  0  0   2 131   4  0
 376  0  0   5   0   0  1
 377  0  0   6 132   8  0
 378  2  0   0   0   0  0
[RF]
1   78.5674804 1 2 0 0

# Format of trapezoid gradients:
# id amplitude rise flat fall
# ..      Hz/m   us   us   us
[TRAP]
 1        344078 170 3660 170
 2     -596657.8 170 2660 170
 3     -565371.6 170 2660 170
 4     -232830.2 170 2660 170
 5       1041667 170 3072 170
 6       1193316 170 2660 170
 7      565371.6 170 2660 170
 8      931320.7 170 2660 170
 9     -560954.6 170 2660 170
10      560954.6 170 2660 170
11     -556537.7 170 2660 170
12      556537.7 170 2660 170
13     -552120.7 170 2660 170
14      552120.7 170 2660 170
15     -547703.7 170 2660 170
16      547703.7 170 2660 170
17     -543286.8 170 2660 170
18      543286.8 170 2660 170
19     -538869.8 170 2660 170
20      538869.8 170 2660 170
21     -534452.9 170 2660 170
22      534452.9 170 2660 170
23     -530035.9 170 2660 170
24      530035.9 170 2660 170
25     -525618.9 170 2660 170
26      525618.9 170 2660 170
27       -521202 170 2660 170
28        521202 170 2660 170
29       -516785 170 2660 170
30        516785 170 2660 170
31     -512368.1 170 2660 170
32      512368.1 170 2660 170
33     -507951.1 170 2660 170
34      507951.1 170 2660 170
35     -503534.1 170 2660 170
36      503534.1 170 2660 170
37     -499117.2 170 2660 170
38      499117.2 170 2660 170
39     -494700.2 170 2660 170
40      494700.2 170 2660 170
41     -490283.3 170 2660 170
42      490283.3 170 2660 170
43     -485866.3 170 2660 170
44      485866.3 170 2660 170
45     -481449.3 170 2660 170
46      481449.3 170 2660 170
47     -477032.4 170 2660 170
48      477032.4 170 2660 170
49     -472615.4 170 2660 170
50      472615.4 170 2660 170
51     -468198.4 170 2660 170
52      468198.4 170 2660 170
53     -463781.5 170 2660 170
54      463781.5 170 2660 170
55     -459364.5 170 2660 170
56      459364.5 170 2660 170
57     -454947.6 170 2660 170
58      454947.6 170 2660 170
59     -450530.6 170 2660 170
60      450530.6 170 2660 170
61     -446113.6 170 2660 170
62      446113.6 170 2660 170
63     -441696.7 170 2660 170
64      441696.7 170 2660 170
65     -437279.7 170 2660 170
66      437279.7 170 2660 170
67     -432862.8 170 2660 170
68      432862.8 170 2660 170
69     -428445.8 170 2660 170
70      428445.8 170 2660 170
71     -424028.8 170 2660 170
72      424028.8 170 2660 170
73     -419611.9 170 2660 170
74      419611.9 170 2660 170
75     -415194.9 170 2660 170
76      415194.9 170 2660 170
77       -410778 170 2660 170
78        410778 170 2660 170
79       -406361 170 2660 170
80        406361 170 2660 170
81       -401944 170 2660 170
82        401944 170 2660 170
83     -397527.1 170 2660 170
84      397527.1 170 2660 170
85     -393110.1 170 2660 170
86      393110.1 170 2660 170
87     -388693.1 170 2660 170
88      388693.1 170 2660 170
89     -384276.2 170 2660 170
90      384276.2 170 2660 170
91     -379859.2 170 2660 170
92      379859.2 170 2660 170
93     -375442.3 170 2660 170
94      375442.3 170 2660 170
95     -371025.3 170 2660 170
96      371025.3 170 2660 170
97     -366608.3 170 2660 170
98      366608.3 170 2660 170
99     -362191.4 170 2660 170
100      362191.4 170 2660 170
101     -357774.4 170 2660 170
102      357774.4 170 2660 170
103     -353357.5 170 2660 170
104      353357.5 170 2660 170
105     -348940.5 170 2660 170
106      348940.5 170 2660 170
107     -344523.5 170 2660 170
108      344523.5 170 2660 170
109     -340106.6 170 2660 170
110      340106.6 170 2660 170
111     -335689.6 170 2660 170
112      335689.6 170 2660 170
113     -331272.7 170 2660 170
114      331272.7 170 2660 170
115     -326855.7 170 2660 170
116      326855.7 170 2660 170
117     -322438.7 170 2660 170
118      322438.7 170 2660 170
119     -318021.8 170 2660 170
120      318021.8 170 2660 170
121     -313604.8 170 2660 170
122      313604.8 170 2660 170
123     -309187.8 170 2660 170
124      309187.8 170 2660 170
125     -304770.9 170 2660 170
126      304770.9 170 2660 170
127     -300353.9 170 2660 170
128      300353.9 170 2660 170
129       -295937 170 2660 170
130        295937 170 2660 170
131       -291520 170 2660 170
132        291520 170 2660 170
133       -287103 170 2660 170
134        287103 170 2660 170
135     -282686.1 170 2660 170
136      282686.1 170 2660 170
137     -278269.1 170 2660 170
138      278269.1 170 2660 170
139     -273852.2 170 2660 170
140      273852.2 170 2660 170
141     -269435.2 170 2660 170
142      269435.2 170 2660 170
143     -265018.2 170 2660 170
144      265018.2 170 2660 170
145     -260601.3 170 2660 170
146      260601.3 170 2660 170
147     -256184.3 170 2660 170
148      256184.3 170 2660 170
149     -251767.3 170 2660 170
150      251767.3 170 2660 170
151     -247350.4 170 2660 170
152      247350.4 170 2660 170
153     -242933.4 170 2660 170
154      242933.4 170 2660 170
155     -238516.5 170 2660 170
156      238516.5 170 2660 170
157     -234099.5 170 2660 170
158      234099.5 170 2660 170
159     -229682.5 170 2660 170
160      229682.5 170 2660 170
161     -225265.6 170 2660 170
162      225265.6 170 2660 170
163     -220848.6 170 2660 170
164      220848.6 170 2660 170
165     -216431.7 170 2660 170
166      216431.7 170 2660 170
167     -212014.7 170 2660 170
168      212014.7 170 2660 170
169     -207597.7 170 2660 170
170      207597.7 170 2660 170
171     -203180.8 170 2660 170
172      203180.8 170 2660 170
173     -198763.8 170 2660 170
174      198763.8 170 2660 170
175     -194346.9 170 2660 170
176      194346.9 170 2660 170
177     -189929.9 170 2660 170
178      189929.9 170 2660 170
179     -185512.9 170 2660 170
180      185512.9 170 2660 170
181       -181096 170 2660 170
182        181096 170 2660 170
183       -176679 170 2660 170
184        176679 170 2660 170
185       -172262 170 2660 170
186        172262 170 2660 170
187     -167845.1 170 2660 170
188      167845.1 170 2660 170
189     -163428.1 170 2660 170
190      163428.1 170 2660 170
191     -159011.2 170 2660 170
192      159011.2 170 2660 170
193     -154594.2 170 2660 170
194      154594.2 170 2660 170
195     -150177.2 170 2660 170
196      150177.2 170 2660 170
197     -145760.3 170 2660 170
198      145760.3 170 2660 170
199     -141343.3 170 2660 170
200      141343.3 170 2660 170
201     -136926.4 170 2660 170
202      136926.4 170 2660 170
203     -132509.4 170 2660 170
204      132509.4 170 2660 170
205     -128092.4 170 2660 170
206      128092.4 170 2660 170
207     -123675.5 170 2660 170
208      123675.5 170 2660 170
209     -119258.5 170 2660 170
210      119258.5 170 2660 170
211     -114841.6 170 2660 170
212      114841.6 170 2660 170
213     -110424.6 170 2660 170
214      110424.6 170 2660 170
215     -106007.6 170 2660 170
216      106007.6 170 2660 170
217     -101590.7 170 2660 170
218      101590.7 170 2660 170
219     -97173.71 170 2660 170
220      97173.71 170 2660 170
221     -92756.75 170 2660 170
222      92756.75 170 2660 170
223     -88339.79 170 2660 170
224      88339.79 170 2660 170
225     -83922.83 170 2660 170
226      83922.83 170 2660 170
227     -79505.87 170 2660 170
228      79505.87 170 2660 170
229      -75088.9 170 2660 170
230       75088.9 170 2660 170
231     -70671.94 170 2660 170
232      70671.94 170 2660 170
233     -66254.98 170 2660 170
234      66254.98 170 2660 170
235     -61838.02 170 2660 170
236      61838.02 170 2660 170
237     -57421.06 170 2660 170
238      57421.06 170 2660 170
239      -53004.1 170 2660 170
240       53004.1 170 2660 170
241     -48587.14 170 2660 170
242      48587.14 170 2660 170
243     -44170.18 170 2660 170
244      44170.18 170 2660 170
245     -39753.22 170 2660 170
246      39753.22 170 2660 170
247     -35336.25 170 2660 170
248      35336.25 170 2660 170
249     -30919.29 170 2660 170
250      30919.29 170 2660 170
251     -26502.33 170 2660 170
252      26502.33 170 2660 170
253     -22085.37 170 2660 170
254      22085.37 170 2660 170
255     -17668.41 170 2660 170
256      17668.41 170 2660 170
257     -13251.45 170 2660 170
258      13251.45 170 2660 170
259     -8834.488 170 2660 170
260      8834.488 170 2660 170
261     -4417.527 170 2660 170
262      4417.527 170 2660 170
263     -0.565371 170 2660 170
264      0.565371 170 2660 170
265      4416.396 170 2660 170
266     -4416.396 170 2660 170
267      8833.357 170 2660 170
268     -8833.357 170 2660 170
269      13250.32 170 2660 170
270     -13250.32 170 2660 170
271      17667.28 170 2660 170
272     -17667.28 170 2660 170
273      22084.24 170 2660 170
274     -22084.24 170 2660 170
275       26501.2 170 2660 170
276      -26501.2 170 2660 170
277      30918.16 170 2660 170
278     -30918.16 170 2660 170
279      35335.12 170 2660 170
280     -35335.12 170 2660 170
281      39752.08 170 2660 170
282     -39752.08 170 2660 170
283      44169.05 170 2660 170
284     -44169.05 170 2660 170
285      48586.01 170 2660 170
286     -48586.01 170 2660 170
287      53002.97 170 2660 170
288     -53002.97 170 2660 170
289      57419.93 170 2660 170
290     -57419.93 170 2660 170
291      61836.89 170 2660 170
292     -61836.89 170 2660 170
293      66253.85 170 2660 170
294     -66253.85 170 2660 170
295      70670.81 170 2660 170
296     -70670.81 170 2660 170
297      75087.77 170 2660 170
298     -75087.77 170 2660 170
299      79504.73 170 2660 170
300     -79504.73 170 2660 170
301       83921.7 170 2660 170
302      -83921.7 170 2660 170
303      88338.66 170 2660 170
304     -88338.66 170 2660 170
305      92755.62 170 2660 170
306     -92755.62 170 2660 170
307      97172.58 170 2660 170
308     -97172.58 170 2660 170
309      101589.5 170 2660 170
310     -101589.5 170 2660 170
311      106006.5 170 2660 170
312     -106006.5 170 2660 170
313      110423.5 170 2660 170
314     -110423.5 170 2660 170
315      114840.4 170 2660 170
316     -114840.4 170 2660 170
317      119257.4 170 2660 170
318     -119257.4 170 2660 170
319      123674.3 170 2660 170
320     -123674.3 170 2660 170
321      128091.3 170 2660 170
322     -128091.3 170 2660 170
323      132508.3 170 2660 170
324     -132508.3 170 2660 170
325      136925.2 170 2660 170
326     -136925.2 170 2660 170
327      141342.2 170 2660 170
328     -141342.2 170 2660 170
329      145759.2 170 2660 170
330     -145759.2 170 2660 170
331      150176.1 170 2660 170
332     -150176.1 170 2660 170
333      154593.1 170 2660 170
334     -154593.1 170 2660 170
335        159010 170 2660 170
336       -159010 170 2660 170
337        163427 170 2660 170
338       -163427 170 2660 170
339        167844 170 2660 170
340       -167844 170 2660 170
341      172260.9 170 2660 170
342     -172260.9 170 2660 170
343      176677.9 170 2660 170
344     -176677.9 170 2660 170
345      181094.8 170 2660 170
346     -181094.8 170 2660 170
347      185511.8 170 2660 170
348     -185511.8 170 2660 170
349      189928.8 170 2660 170
350     -189928.8 170 2660 170
351      194345.7 170 2660 170
352     -194345.7 170 2660 170
353      198762.7 170 2660 170
354     -198762.7 170 2660 170
355      203179.6 170 2660 170
356     -203179.6 170 2660 170
357      207596.6 170 2660 170
358     -207596.6 170 2660 170
359      212013.6 170 2660 170
360     -212013.6 170 2660 170
361      216430.5 170 2660 170
362     -216430.5 170 2660 170
363      220847.5 170 2660 170
364     -220847.5 170 2660 170
365      225264.5 170 2660 170
366     -225264.5 170 2660 170
367      229681.4 170 2660 170
368     -229681.4 170 2660 170
369      234098.4 170 2660 170
370     -234098.4 170 2660 170
371      238515.3 170 2660 170
372     -238515.3 170 2660 170
373      242932.3 170 2660 170
374     -242932.3 170 2660 170
375      247349.3 170 2660 170
376     -247349.3 170 2660 170
377      251766.2 170 2660 170
378     -251766.2 170 2660 170
379      256183.2 170 2660 170
380     -256183.2 170 2660 170
381      260600.1 170 2660 170
382     -260600.1 170 2660 170
383      265017.1 170 2660 170
384     -265017.1 170 2660 170
385      269434.1 170 2660 170
386     -269434.1 170 2660 170
387        273851 170 2660 170
388       -273851 170 2660 170
389        278268 170 2660 170
390       -278268 170 2660 170
391      282684.9 170 2660 170
392     -282684.9 170 2660 170
393      287101.9 170 2660 170
394     -287101.9 170 2660 170
395      291518.9 170 2660 170
396     -291518.9 170 2660 170
397      295935.8 170 2660 170
398     -295935.8 170 2660 170
399      300352.8 170 2660 170
400     -300352.8 170 2660 170
401      304769.8 170 2660 170
402     -304769.8 170 2660 170
403      309186.7 170 2660 170
404     -309186.7 170 2660 170
405      313603.7 170 2660 170
406     -313603.7 170 2660 170
407      318020.6 170 2660 170
408     -318020.6 170 2660 170
409      322437.6 170 2660 170
410     -322437.6 170 2660 170
411      326854.6 170 2660 170
412     -326854.6 170 2660 170
413      331271.5 170 2660 170
414     -331271.5 170 2660 170
415      335688.5 170 2660 170
416     -335688.5 170 2660 170
417      340105.4 170 2660 170
418     -340105.4 170 2660 170
419      344522.4 170 2660 170
420     -344522.4 170 2660 170
421      348939.4 170 2660 170
422     -348939.4 170 2660 170
423      353356.3 170 2660 170
424     -353356.3 170 2660 170
425      357773.3 170 2660 170
426     -357773.3 170 2660 170
427      362190.2 170 2660 170
428     -362190.2 170 2660 170
429      366607.2 170 2660 170
430     -366607.2 170 2660 170
431      371024.2 170 2660 170
432     -371024.2 170 2660 170
433      375441.1 170 2660 170
434     -375441.1 170 2660 170
435      379858.1 170 2660 170
436     -379858.1 170 2660 170
437      384275.1 170 2660 170
438     -384275.1 170 2660 170
439        388692 170 2660 170
440       -388692 170 2660 170
441        393109 170 2660 170
442       -393109 170 2660 170
443      397525.9 170 2660 170
444     -397525.9 170 2660 170
445      401942.9 170 2660 170
446     -401942.9 170 2660 170
447      406359.9 170 2660 170
448     -406359.9 170 2660 170
449      410776.8 170 2660 170
450     -410776.8 170 2660 170
451      415193.8 170 2660 170
452     -415193.8 170 2660 170
453      419610.7 170 2660 170
454     -419610.7 170 2660 170
455      424027.7 170 2660 170
456     -424027.7 170 2660 170
457      428444.7 170 2660 170
458     -428444.7 170 2660 170
459      432861.6 170 2660 170
460     -432861.6 170 2660 170
461      437278.6 170 2660 170
462     -437278.6 170 2660 170
463      441695.5 170 2660 170
464     -441695.5 170 2660 170
465      446112.5 170 2660 170
466     -446112.5 170 2660 170
467      450529.5 170 2660 170
468     -450529.5 170 2660 170
469      454946.4 170 2660 170
470     -454946.4 170 2660 170
471      459363.4 170 2660 170
472     -459363.4 170 2660 170
473      463780.4 170 2660 170
474     -463780.4 170 2660 170
475      468197.3 170 2660 170
476     -468197.3 170 2660 170
477      472614.3 170 2660 170
478     -472614.3 170 2660 170
479      477031.2 170 2660 170
480     -477031.2 170 2660 170
481      481448.2 170 2660 170
482     -481448.2 170 2660 170
483      485865.2 170 2660 170
484     -485865.2 170 2660 170
485      490282.1 170 2660 170
486     -490282.1 170 2660 170
487      494699.1 170 2660 170
488     -494699.1 170 2660 170
489        499116 170 2660 170
490       -499116 170 2660 170
491        503533 170 2660 170
492       -503533 170 2660 170
493        507950 170 2660 170
494       -507950 170 2660 170
495      512366.9 170 2660 170
496     -512366.9 170 2660 170
497      516783.9 170 2660 170
498     -516783.9 170 2660 170
499      521200.8 170 2660 170
500     -521200.8 170 2660 170
501      525617.8 170 2660 170
502     -525617.8 170 2660 170
503      530034.8 170 2660 170
504     -530034.8 170 2660 170
505      534451.7 170 2660 170
506     -534451.7 170 2660 170
507      538868.7 170 2660 170
508     -538868.7 170 2660 170
509      543285.7 170 2660 170
510     -543285.7 170 2660 170
511      547702.6 170 2660 170
512     -547702.6 170 2660 170
513      552119.6 170 2660 170
514     -552119.6 170 2660 170
515      556536.5 170 2660 170
516     -556536.5 170 2660 170
517      560953.5 170 2660 170
518     -560953.5 170 2660 170

# Format of ADC events:
# id num dwell delay freq phase
# ..  ..    ns    us   Hz   rad
[ADC]
 1 256  12000 170 0 0

# Format of delays:
# id delay (us)
[DELAYS]
1 290
2 86300

# Sequence Shapes

[SHAPES]

shape_id 1
num_samples 4000
1.23139e-11
1.23139e-11
259
1.348074e-10
1.348074e-10
28
2.532991e-10
2.532991e-10
18
3.832164e-10
3.832164e-10
18
5.767803e-10
5.767803e-10
8
7.062389e-10
7.062389e-10
8
8.636371e-10
8.636371e-10
8
1.054749e-09
1.054749e-09
8
1.286486e-09
1.286486e-09
8
1.567108e-09
1.567108e-09
8
1.906472e-09
1.906472e-09
8
2.316324e-09
2.316324e-09
8
2.810641e-09
2.810641e-09
8
3.40603e-09
3.40603e-09
8
4.122193e-09
4.122193e-09
8
4.982471e-09
4.982471e-09
8
6.014473e-09
6.014473e-09
8
7.250809e-09
7.250809e-09
8
8.729939e-09
8.729939e-09
8
1.049715e-08
1.049715e-08
8
1.260571e-08
1.260571e-08
8
1.511813e-08
1.511813e-08
8
1.810772e-08
1.810772e-08
8
2.166028e-08
2.166028e-08
8
2.587609e-08
2.587609e-08
8
3.087219e-08
3.087219e-08
8
3.678492e-08
3.678492e-08
8
4.377295e-08
4.377295e-08
8
5.202055e-08
5.202055e-08
8
6.174147e-08
6.174147e-08
8
7.318324e-08
7.318324e-08
8
8.663204e-08
8.663204e-08
8
1.024183e-07
1.024183e-07
8
1.209227e-07
1.209227e-07
8
1.425837e-07
1.425837e-07
8
1.679046e-07
1.679046e-07
8
1.974632e-07
1.974632e-07
8
2.319209e-07
2.319209e-07
8
2.720342e-07
2.720342e-07
8
3.186668e-07
3.186668e-07
8
3.728028e-07
3.728028e-07
8
4.355623e-07
4.355623e-07
8
5.082178e-07
5.082178e-07
8
5.922123e-07
5.922123e-07
8
6.891797e-07
6.891797e-07
8
8.009672e-07
8.009672e-07
8
9.29659e-07
9.29659e-07
8
1.077603e-06
1.077603e-06
8
1.247441e-06
1.247441e-06
8
1.442136e-06
1.442136e-06
8
1.665012e-06
1.665012e-06
8
1.919787e-06
1.919787e-06
8
2.210612e-06
2.210612e-06
8
2.542116e-06
2.542116e-06
8
2.919449e-06
2.919449e-06
8
3.348334e-06
3.348334e-06
8
3.835115e-06
3.835115e-06
8
4.386813e-06
4.386813e-06
8
5.011185e-06
5.011185e-06
8
5.716784e-06
5.716784e-06
8
6.513019e-06
6.513019e-06
8
7.41023e-06
7.41023e-06
8
8.419747e-06
8.419747e-06
8
9.553968e-06
9.553968e-06
8
1.082643e-05
1.082643e-05
8
1.225188e-05
1.225188e-05
8
1.384635e-05
1.384635e-05
8
1.562725e-05
1.562725e-05
8
1.76134e-05
1.76134e-05
8
1.982518e-05
1.982518e-05
8
2.22845e-05
2.22845e-05
8
2.501498e-05
2.501498e-05
8
2.804192e-05
2.804192e-05
8
3.139241e-05
3.139241e-05
8
3.509541e-05
3.509541e-05
8
3.918173e-05
3.918173e-05
8
4.36841e-05
4.36841e-05
8
4.863724e-05
4.863724e-05
8
5.407779e-05
5.407779e-05
8
6.00444e-05
6.00444e-05
8
6.657764e-05
6.657764e-05
8
7.372003e-05
7.372003e-05
8
8.151596e-05
8.151596e-05
8
9.001163e-05
9.001163e-05
8
9.925492e-05
9.925492e-05
8
0.0001092954
0.0001092954
8
0.0001201839
0.0001201839
8
0.0001319727
0.0001319727
8
0.0001447151
0.0001447151
8
0.0001584652
0.0001584652
8
0.0001732779
0.0001732779
8
0.0001892079
0.0001892079
8
0.0002063104
0.0002063104
8
0.0002246397
0.0002246397
8
0.0002442496
0.0002442496
8
0.0002651925
0.0002651925
8
0.0002875191
0.0002875191
8
0.0003112777
0.0003112777
8
0.0003365139
0.0003365139
8
0.0003632702
0.0003632702
8
0.0003915846
0.0003915846
8
0.000421491
0.000421491
8
0.0004530178
0.0004530178
8
0.0004861875
0.0004861875
8
0.0005210161
0.0005210161
8
0.0005575123
0.0005575123
8
0.0005956768
0.0005956768
8
0.0006355016
0.0006355016
8
0.0006769694
0.0006769694
8
0.0007200528
0.0007200528
8
0.0007647138
0.0007647138
8
0.0008109031
0.0008109031
8
0.0008585595
0.0008585595
8
0.0009076094
0.0009076094
8
0.0009579664
0.0009579664
8
0.001009531
0.001009531
8
0.001062189
0.001062189
8
0.001115815
0.001115815
8
0.001170265
0.001170265
8
0.001225387
0.001225387
8
0.001281009
0.001281009
8
0.001336949
0.001336949
8
0.00139301
0.00139301
8
0.001448981
0.001448981
8
0.00150464
0.00150464
8
0.001559752
0.001559752
8
0.00161407
0.00161407
8
0.001667338
0.001667338
8
0.001719291
0.001719291
8
0.001769653
0.001769653
8
0.001818144
0.001818144
8
0.001864479
0.001864479
8
0.001908366
0.001908366
8
