# Pulseq sequence file
# Created by MATLAB mr toolbox

[VERSION]
major 1
minor 1
revision 0

# Format of blocks:
#  #  D RF  GX  GY  GZ ADC
[BLOCKS]
 1  0  1   1   1   2  0
 2  1  0   0   0   0  0
 3  0  2   3   3   4  0
 4  0  0   5   6   7  1
 5  0  3   3   3   4  0
 6  0  0   8   9  10  2
 7  0  4   3   3   4  0
 8  0  0  11  12  13  3
 9  0  5   3   3   4  0
10  0  0   5   6  14  4
11  0  6   3   3   4  0
12  0  0   8   9  15  5
13  0  7   3   3   4  0
14  0  0  11  12  16  6
15  0  8   3   3   4  0
16  0  0   5   6  17  7
17  0  9   3   3   4  0
18  0  0   8   9  18  8
19  0 10   3   3   4  0
20  0  0  11  12  19  9
21  0 11   3   3   4  0
22  0  0   5   6  20 10
23  0 12   3   3   4  0
24  0  0   8   9  21  6
25  0 13   3   3   4  0
26  0  0  11  12  22 11
27  0 14   3   3   4  0
28  0  0   5   6  23 12
29  0 15   3   3   4  0
30  0  0   8   9  24 13
31  0 16   3   3   4  0
32  0  0  11  12  25 14
33  0 17   3   3   4  0
34  0  0   5   6  26 15
35  0 18   3   3   4  0
36  0  0   8   9  27 16
37  0 19   3   3   4  0
38  0  0  11  12  28 17
39  0 20   3   3   4  0
40  0  0   5   6  29 13
41  0 21   3   3   4  0
42  0  0   8   9  30 18
43  0 22   3   3   4  0
44  0  0  11  12  31 19
45  0 23   3   3   4  0
46  0  0   5   6  32 20
47  0 24   3   3   4  0
48  0  0   8   9  33 21
49  0 25   3   3   4  0
50  0  0  11  12  34  9
51  0 26   3   3   4  0
52  0  0   5   6  35 22
53  0 27   3   3   4  0
54  0  0   8   9  36 10
55  0 28   3   3   4  0
56  0  0  11  12  37 20
57  0 29   3   3   4  0
58  0  0   5   6  38 23
59  0 30   3   3   4  0
60  0  0   8   9  39  4
61  0 31   3   3   4  0
62  0  0  11  12  40 24
63  0 32   3   3   4  0
64  0  0   5   6  41 14
65  0 33   3   3   4  0
66  0  0   8   9  42 16
67  0 34   3   3   4  0
68  0  0  11  12  43 25
69  0 35   3   3   4  0
70  0  0   5   6  44  2
71  0 36   3   3   4  0
72  0  0   8   9  45 24
73  0 37   3   3   4  0
74  0  0  11  12  46 18
75  0 38   3   3   4  0
76  0  0   5   6  47 11
77  0 39   3   3   4  0
78  0  0   8   9  48 26
79  0 40   3   3   4  0
80  0  0  11  12  49  7
81  0 41   3   3   4  0
82  0  0   5   6  50 22
83  0 42   3   3   4  0

# Format of RF events:
# id amplitude mag_id phase_id freq phase
# ..        Hz   ....     ....   Hz   rad
[RF]
1       627.54 1 2 0 0
2      153.588 5 6 0 0
3      158.358 5 6 0 0
4      154.828 5 6 0 0
5      159.312 5 6 0 0
6      164.749 5 6 0 0
7      166.753 5 6 0 0
8      166.657 5 6 0 0
9      167.707 5 6 0 0
10      170.855 5 6 0 0
11      175.148 5 6 0 0
12      178.773 5 6 0 0
13      180.871 5 6 0 0
14      182.016 5 6 0 0
15      183.638 5 6 0 0
16      187.167 5 6 0 0
17       192.51 5 6 0 0
18      198.329 5 6 0 0
19      203.003 5 6 0 0
20      205.865 5 6 0 0
21      207.773 5 6 0 0
22       210.73 5 6 0 0
23      216.549 5 6 0 0
24      224.658 5 6 0 0
25      233.244 5 6 0 0
26      240.399 5 6 0 0
27       245.55 5 6 0 0
28      249.938 5 6 0 0
29      255.662 5 6 0 0
30       264.82 5 6 0 0
31       278.08 5 6 0 0
32      294.202 5 6 0 0
33      310.992 5 6 0 0
34      326.446 5 6 0 0
35      339.992 5 6 0 0
36      354.111 5 6 0 0
37       374.24 5 6 0 0
38      407.819 5 6 0 0
39      462.863 5 6 0 0
40      544.713 5 6 0 0
41      653.369 5 6 0 0
42      781.486 5 6 0 0

# Format of arbitrary gradients:
# id amplitude shape_id
# ..      Hz/m     ....
[GRADIENTS]
1            0 3 
2       319326 4 
3            0 7 
4       970973 8 
5       677840 9 
6       684500 10 
7      7170.11 11 
8       681737 12 
9       689945 13 
10      7170.11 14 
11       687250 15 
12       679194 16 
13      21510.3 11 
14      21510.3 14 
15      35850.6 11 
16      35850.6 14 
17      50209.2 11 
18      50209.2 14 
19      64549.4 11 
20      64549.4 14 
21      78889.6 11 
22      78889.6 14 
23      93229.9 11 
24      93229.9 14 
25       107570 11 
26       107570 14 
27       121910 11 
28       121910 14 
29       136251 11 
30       136251 14 
31       150609 11 
32       150609 14 
33       164949 11 
34       164949 14 
35       179290 11 
36       179290 14 
37       193630 11 
38       193630 14 
39       207970 11 
40       207970 14 
41       222310 11 
42       222310 14 
43       236651 11 
44       236651 14 
45       251009 11 
46       251009 14 
47       265349 11 
48       265349 14 
49       279690 11 
50       279690 14 

# Format of ADC events:
# id num dwell delay freq phase
# ..  ..    ns    us   Hz   rad
[ADC]
 1 3017   4000   0 0 0
 2 3017   4000   0 0 2.04204
 3 3017   4000   0 0 -0.157051
 4 3017   4000   0 0 -0.314102
 5 3017   4000   0 0 1.57089
 6 3017   4000   0 0 -0.785446
 7 3017   4000   0 0 -1.09955
 8 3017   4000   0 0 0.628395
 9 3017   4000   0 0 -1.88499
10 3017   4000   0 0 -2.35615
11 3017   4000   0 0 2.82749
12 3017   4000   0 0 2.1991
13 3017   4000   0 0 -2.67044
14 3017   4000   0 0 0.785446
15 3017   4000   0 0 -0
16 3017   4000   0 0 1.2566
17 3017   4000   0 0 -1.72794
18 3017   4000   0 0 -1.57089
19 3017   4000   0 0 1.5707
20 3017   4000   0 0 0.471153
21 3017   4000   0 0 1.41365
22 3017   4000   0 0 3.14159
23 3017   4000   0 0 -0.942497
24 3017   4000   0 0 2.35615
25 3017   4000   0 0 -2.5132
26 3017   4000   0 0 2.98454

# Format of delays:
# id delay (us)
[DELAYS]
1 1400000

# Sequence Shapes
[SHAPES]

shape_id 1
num_samples 39908
0
0
335
0.19999
0.19999
2
0
0
106
-0.19999
-0.19999
2
0
0
794
0.25
0.25
2
0
0
794
-0.25
-0.25
2
0
0
1594
0.25
0.25
2
0
0
794
-0.25
-0.25
2
0
0
794
0.19999
0.19999
2
0
0
106
-0.19999
-0.19999
2
0
0
794
0.25
0.25
2
0
0
794
-0.25
-0.25
2
0
0
1594
0.25
0.25
2
0
0
794
-0.25
-0.25
2
0
0
794
0.19999
0.19999
2
0
0
106
-0.19999
-0.19999
2
0
0
794
0.25
0.25
2
0
0
794
-0.25
-0.25
2
0
0
1594
0.25
0.25
2
0
0
794
-0.25
-0.25
2
0
0
794
0.19999
0.19999
2
0
0
102
-0.19999
-0.19999
2
0
0
794
0.25
0.25
2
0
0
794
-0.25
-0.25
2
0
0
1594
0.25
0.25
2
0
0
794
-0.25
-0.25
2
0
0
794
0.19999
0.19999
2
0
0
106
-0.19999
-0.19999
2
0
0
794
0.25
0.25
2
0
0
794
-0.25
-0.25
2
0
0
1594
0.25
0.25
2
0
0
794
-0.25
-0.25
2
0
0
794
0.19999
0.19999
2
0
0
106
-0.19999
-0.19999
2
0
0
794
0.25
0.25
2
0
0
794
-0.25
-0.25
2
0
0
1594
0.25
0.25
2
0
0
794
-0.25
-0.25
2
0
0
794
0.19999
0.19999
2
0
0
106
-0.19999
-0.19999
2
0
0
794
0.25
0.25
2
0
0
794
-0.25
-0.25
2
0
0
1594
0.25
0.25
2
0
0
794
-0.25
-0.25
2
0
0
794
0.19999
0.19999
2
0
0
102
-0.19999
-0.19999
2
0
0
794
0.25
0.25
2
0
0
794
-0.25
-0.25
2
0
0
1594
0.25
0.25
2
0
0
794
-0.25
-0.25
2
0
0
794
0.19999
0.19999
2
0
0
102
-0.19999
-0.19999
2
0
0
169

shape_id 2
num_samples 39908
0
0
335
0.000122574
0
0
112
-0.000122574
0
0
794
0.000122574
0
0
800
-0.000122574
0
0
1594
0.000122574
0
0
800
-0.000122574
0
0
794
0.000122574
0
0
112
-0.000122574
0
0
794
0.500138
0
0
800
-0.500138
0
0
1594
0.500138
0
0
800
-0.500138
0
0
794
0.000122574
0
0
112
-0.000122574
0
0
794
0.500138
0
0
800
-0.500138
0
0
1594
0.000122574
0
0
800
-0.000122574
0
0
794
0.000122574
0
0
108
-0.000122574
0
0
794
0.000122574
0
0
800
-0.000122574
0
0
1594
0.500138
0
0
800
-0.500138
0
0
794
0.000122574
0
0
112
-0.000122574
0
0
794
0.500138
0
0
800
-0.500138
0
0
1594
0.500138
0
0
800
-0.500138
0
0
794
0.000122574
0
0
112
-0.000122574
0
0
794
0.000122574
0
0
800
-0.000122574
0
0
1594
0.000122574
0
0
800
-0.000122574
0
0
794
0.000122574
0
0
112
-0.000122574
0
0
794
0.000122574
0
0
800
-0.000122574
0
0
1594
0.500138
0
0
800
-0.500138
0
0
794
0.000122574
0
0
108
-0.000122574
0
0
794
0.500138
0
0
800
-0.500138
0
0
1594
0.000122574
0
0
800
-0.000122574
0
0
794
0.000122574
0
0
108
-0.000122574
0
0
169

shape_id 3
num_samples 3991
3989

shape_id 4
num_samples 3991
0
0
43
0.0100712
0.033469
0.0333672
0.0333672
0
0.0335707
0.0333672
0.0335707
0.0333672
0.0333672
0
0.0335707
0.0333672
0.0335707
0.0333672
0.0333672
0
0.0335707
0.0333672
0.033469
0.033469
0
0.0333672
0.0335707
0.0333672
0.0335707
0.0333672
0.0333672
0
0.033469
0.033469
2
0.0333672
0.0333672
0
0.0101729
-0.0333672
-0.0335707
-0.0333672
-0.0335707
-0.0333672
-0.0333672
0
-0.0335707
-0.0333672
-0.0335707
-0.0333672
-0.0335707
-0.0333672
-0.0333672
0
-0.033469
-0.033469
2
-0.0333672
-0.0333672
0
-0.0335707
-0.0333672
-0.033469
-0.033469
2
-0.0333672
-0.0333672
0
-0.0335707
-0.0333672
-0.0201424
0
0
97
0.0100712
0.033469
0.0333672
0.0333672
0
0.0335707
0.0333672
0.0335707
0.0333672
0.0333672
0
0.0335707
0.0333672
0.0335707
0.0333672
0.0333672
0
0.0335707
0.0333672
0.033469
0.033469
0
0.0333672
0.0335707
0.0333672
0.0335707
0.0333672
0.0333672
0
0.033469
0.033469
2
0.0333672
0.0333672
0
0.0101729
-0.0333672
-0.0335707
-0.0333672
-0.0335707
-0.0333672
-0.0333672
0
-0.0335707
-0.0333672
-0.0335707
-0.0333672
-0.0335707
-0.0333672
-0.0333672
0
-0.033469
-0.033469
2
-0.0333672
-0.0333672
0
-0.0335707
-0.0333672
-0.033469
-0.033469
2
-0.0333672
-0.0333672
0
-0.0335707
-0.0333672
-0.0201424
0
0
17
0.0100712
0.033469
0.0333672
0.0333672
0
0.0335707
0.0333672
0.0335707
0.0333672
0.0333672
0
0.0335707
0.0333672
0.0335707
0.0333672
0.0333672
0
0.0335707
0.0333672
0.033469
0.033469
0
0.0333672
0.0335707
0.0333672
0.0335707
0.0333672
0.0333672
0
0.033469
0.033469
2
0.0333672
0.0333672
0
0.0101729
-0.0333672
-0.0335707
-0.0333672
-0.0335707
-0.0333672
-0.0333672
0
-0.0335707
-0.0333672
-0.0335707
-0.0333672
-0.0335707
-0.0333672
-0.0333672
0
-0.033469
-0.033469
2
-0.0333672
-0.0333672
0
-0.0335707
-0.0333672
-0.033469
-0.033469
2
-0.0333672
-0.0333672
0
-0.0335707
-0.0333672
-0.0201424
0
0
97
0.0100712
0.033469
0.0333672
0.0333672
0
0.0335707
0.0333672
0.0335707
0.0333672
0.0333672
0
0.0335707
0.0333672
0.0335707
0.0333672
0.0333672
0
0.0335707
0.0333672
0.033469
0.033469
0
0.0333672
0.0335707
0.0333672
0.0335707
0.0333672
0.0333672
0
0.033469
0.033469
2
0.0333672
0.0333672
0
0.0101729
-0.0333672
-0.0335707
-0.0333672
-0.0335707
-0.0333672
-0.0333672
0
-0.0335707
-0.0333672
-0.0335707
-0.0333672
-0.0335707
-0.0333672
-0.0333672
0
-0.033469
-0.033469
2
-0.0333672
-0.0333672
0
-0.0335707
-0.0333672
-0.033469
-0.033469
2
-0.0333672
-0.0333672
0
-0.0335707
-0.0333672
-0.0201424
0
0
28
0.00671414
0.0333672
0.0335707
0.0333672
0.0333672
0
0.0335707
0.0333672
0.0335707
0.0333672
0.0333672
0
0.0335707
0.0333672
0.0335707
0.0333672
0.0333672
0
0.0335707
0.0333672
0.033469
0.033469
0
0.0333672
0.0335707
0.0333672
0.0333672
0
0.0335707
0.0333672
0.033469
0.033469
0
0.0333672
0.0335707
0.0333672
0.0166836
-0.0333672
-0.0333672
0
-0.0335707
-0.0333672
-0.0335707
-0.0333672
-0.0333672
0
-0.0335707
-0.0333672
-0.0335707
-0.0333672
-0.0333672
0
-0.0335707
-0.0333672
-0.033469
-0.033469
0
-0.0333672
-0.0335707
-0.0333672
-0.0333672
0
-0.0335707
-0.0333672
-0.033469
-0.033469
0
-0.0333672
-0.0335707
-0.0333672
-0.0335707
-0.0333672
-0.0233978
0
0
97
0.00671414
0.0333672
0.0335707
0.0333672
0.0333672
0
0.0335707
0.0333672
0.0335707
0.0333672
0.0333672
0
0.0335707
0.0333672
0.0335707
0.0333672
0.0333672
0
0.0335707
0.0333672
0.033469
0.033469
0
0.0333672
0.0335707
0.0333672
0.0333672
0
0.0335707
0.0333672
0.033469
0.033469
0
0.0333672
0.0335707
0.0333672
0.0166836
-0.0333672
-0.0333672
0
-0.0335707
-0.0333672
-0.0335707
-0.0333672
-0.0333672
0
-0.0335707
-0.0333672
-0.0335707
-0.0333672
-0.0333672
0
-0.0335707
-0.0333672
-0.033469
-0.033469
0
-0.0333672
-0.0335707
-0.0333672
-0.0333672
0
-0.0335707
-0.0333672
-0.033469
-0.033469
0
-0.0333672
-0.0335707
-0.0333672
-0.0335707
-0.0333672
-0.0233978
0
0
17
0.00671414
0.0333672
0.0335707
0.0333672
0.0333672
0
0.0335707
0.0333672
0.0335707
0.0333672
0.0333672
0
0.0335707
0.0333672
0.0335707
0.0333672
0.0333672
0
0.0335707
0.0333672
0.033469
0.033469
0
0.0333672
0.0335707
0.0333672
0.0333672
0
0.0335707
0.0333672
0.033469
0.033469
0
0.0333672
0.0335707
0.0333672
0.0166836
-0.0333672
-0.0333672
0
-0.0335707
-0.0333672
-0.0335707
-0.0333672
-0.0333672
0
-0.0335707
-0.0333672
-0.0335707
-0.0333672
-0.0333672
0
-0.0335707
-0.0333672
-0.033469
-0.033469
0
-0.0333672
-0.0335707
-0.0333672
-0.0333672
0
-0.0335707
-0.0333672
-0.033469
-0.033469
0
-0.0333672
-0.0335707
-0.0333672
-0.0335707
-0.0333672
-0.0233978
0
0
97
0.00671414
0.0333672
0.0335707
0.0333672
0.0333672
0
0.0335707
0.0333672
0.0335707
0.0333672
0.0333672
0
0.0335707
0.0333672
0.0335707
0.0333672
0.0333672
0
0.0335707
0.0333672
0.033469
0.033469
0
0.0333672
0.0335707
0.0333672
0.0333672
0
0.0335707
0.0333672
0.033469
0.033469
0
0.0333672
0.0335707
0.0333672
0.0166836
-0.0333672
-0.0333672
0
-0.0335707
-0.0333672
-0.0335707
-0.0333672
-0.0333672
0
-0.0335707
-0.0333672
-0.0335707
-0.0333672
-0.0333672
0
-0.0335707
-0.0333672
-0.033469
-0.033469
0
-0.0333672
-0.0335707
-0.0333672
-0.0333672
0
-0.0335707
-0.0333672
-0.033469
-0.033469
0
-0.0333672
-0.0335707
-0.0333672
-0.0335707
-0.0333672
-0.0233978
0
0
28
0.00498474
0.0318413
0.0333672
0.0335707
0.0333672
0.0333672
0
0.0335707
0.0333672
0.033469
0.033469
0
0.0333672
0.0335707
0.0333672
0.0335707
0.0333672
0.0333672
0
0.033469
0.033469
2
0.0333672
0.0335707
0.0333672
0.0333672
0
0.0335707
0.0333672
0.033469
0.033469
0
0.0333672
0.0335707
0.0216684
-0.0318413
-0.0333672
-0.0335707
-0.0333672
-0.0333672
0
-0.033469
-0.033469
2
-0.0333672
-0.0335707
-0.0333672
-0.0333672
0
-0.033469
-0.033469
2
-0.0333672
-0.0333672
0
-0.0335707
-0.0333672
-0.0335707
-0.0333672
-0.0335707
-0.0333672
-0.0333672
0
-0.0335707
-0.0333672
-0.0335707
-0.0266531
0
0
97
0.00498474
0.0318413
0.0333672
0.0335707
0.0333672
0.0333672
0
0.0335707
0.0333672
0.033469
0.033469
0
0.0333672
0.0335707
0.0333672
0.0335707
0.0333672
0.0333672
0
0.033469
0.033469
2
0.0333672
0.0335707
0.0333672
0.0333672
0
0.0335707
0.0333672
0.033469
0.033469
0
0.0333672
0.0335707
0.0216684
-0.0318413
-0.0333672
-0.0335707
-0.0333672
-0.0333672
0
-0.033469
-0.033469
2
-0.0333672
-0.0335707
-0.0333672
-0.0333672
0
-0.033469
-0.033469
2
-0.0333672
-0.0333672
0
-0.0335707
-0.0333672
-0.0335707
-0.0333672
-0.0335707
-0.0333672
-0.0333672
0
-0.0335707
-0.0333672
-0.0335707
-0.0266531
0
0
17
0.00498474
0.0318413
0.0333672
0.0335707
0.0333672
0.0333672
0
0.0335707
0.0333672
0.033469
0.033469
0
0.0333672
0.0335707
0.0333672
0.0335707
0.0333672
0.0333672
0
0.033469
0.033469
2
0.0333672
0.0335707
0.0333672
0.0333672
0
0.0335707
0.0333672
0.033469
0.033469
0
0.0333672
0.0335707
0.0216684
-0.0318413
-0.0333672
-0.0335707
-0.0333672
-0.0333672
0
-0.033469
-0.033469
2
-0.0333672
-0.0335707
-0.0333672
-0.0333672
0
-0.033469
-0.033469
2
-0.0333672
-0.0333672
0
-0.0335707
-0.0333672
-0.0335707
-0.0333672
-0.0335707
-0.0333672
-0.0333672
0
-0.0335707
-0.0333672
-0.0335707
-0.0266531
0
0
97
0.00498474
0.0318413
0.0333672
0.0335707
0.0333672
0.0333672
0
0.0335707
0.0333672
0.033469
0.033469
0
0.0333672
0.0335707
0.0333672
0.0335707
0.0333672
0.0333672
0
0.033469
0.033469
2
0.0333672
0.0335707
0.0333672
0.0333672
0
0.0335707
0.0333672
0.033469
0.033469
0
0.0333672
0.0335707
0.0216684
-0.0318413
-0.0333672
-0.0335707
-0.0333672
-0.0333672
0
-0.033469
-0.033469
2
-0.0333672
-0.0335707
-0.0333672
-0.0333672
0
-0.033469
-0.033469
2
-0.0333672
-0.0333672
0
-0.0335707
-0.0333672
-0.0335707
-0.0333672
-0.0335707
-0.0333672
-0.0333672
0
-0.0335707
-0.0333672
-0.0335707
-0.0266531
0
0
29
0.0333672
0.0335707
0.0333672
0.0335707
0.0333672
0.0333672
0
0.0335707
0.0333672
0.033469
0.033469
2
0.0333672
0.0333672
0
0.0335707
0.0333672
0.033469
0.033469
0
0.0333672
0.0335707
0.0333672
0.0333672
0
0.0335707
0.0333672
0.0335707
0.0333672
0.0333672
0
0.0335707
0.0333672
0.0301119
-0.0333672
-0.0335707
-0.0333672
-0.0333672
0
-0.0335707
-0.0333672
-0.033469
-0.033469
0
-0.0333672
-0.0335707
-0.0333672
-0.0333672
0
-0.0335707
-0.0333672
-0.033469
-0.033469
0
-0.0333672
-0.0335707
-0.0333672
-0.0335707
-0.0333672
-0.0333672
0
-0.0335707
-0.0333672
-0.033469
-0.033469
0
-0.0333672
-0.0335707
-0.0333672
-0.0301119
0
0
98
0.0333672
0.0335707
0.0333672
0.0335707
0.0333672
0.0333672
0
0.0335707
0.0333672
0.033469
0.033469
2
0.0333672
0.0333672
0
0.0335707
0.0333672
0.033469
0.033469
0
0.0333672
0.0335707
0.0333672
0.0333672
0
0.0335707
0.0333672
0.0335707
0.0333672
0.0333672
0
0.0335707
0.0333672
0.0301119
-0.0333672
-0.0335707
-0.0333672
-0.0333672
0
-0.0335707
-0.0333672
-0.033469
-0.033469
0
-0.0333672
-0.0335707
-0.0333672
-0.0333672
0
-0.0335707
-0.0333672
-0.033469
-0.033469
0
-0.0333672
-0.0335707
-0.0333672
-0.0335707
-0.0333672
-0.0333672
0
-0.0335707
-0.0333672
-0.033469
-0.033469
0
-0.0333672
-0.0335707
-0.0333672
-0.0301119
0
0
18
0.0333672
0.0335707
0.0333672
0.0335707
0.0333672
0.0333672
0
0.0335707
0.0333672
0.033469
0.033469
2
0.0333672
0.0333672
0
0.0335707
0.0333672
0.033469
0.033469
0
0.0333672
0.0335707
0.0333672
0.0333672
0
0.0335707
0.0333672
0.0335707
0.0333672
0.0333672
0
0.0335707
0.0333672
0.0301119
-0.0333672
-0.0335707
-0.0333672
-0.0333672
0
-0.0335707
-0.0333672
-0.033469
-0.033469
0
-0.0333672
-0.0335707
-0.0333672
-0.0333672
0
-0.0335707
-0.0333672
-0.033469
-0.033469
0
-0.0333672
-0.0335707
-0.0333672
-0.0335707
-0.0333672
-0.0333672
0
-0.0335707
-0.0333672
-0.033469
-0.033469
0
-0.0333672
-0.0335707
-0.0333672
-0.0301119
0
0
98
0.0333672
0.0335707
0.0333672
0.0335707
0.0333672
0.0333672
0
0.0335707
0.0333672
0.033469
0.033469
2
0.0333672
0.0333672
0
0.0335707
0.0333672
0.033469
0.033469
0
0.0333672
0.0335707
0.0333672
0.0333672
0
0.0335707
0.0333672
0.0335707
0.0333672
0.0333672
0
0.0335707
0.0333672
0.0301119
-0.0333672
-0.0335707
-0.0333672
-0.0333672
0
-0.0335707
-0.0333672
-0.033469
-0.033469
0
-0.0333672
-0.0335707
-0.0333672
-0.0333672
0
-0.0335707
-0.0333672
-0.033469
-0.033469
0
-0.0333672
-0.0335707
-0.0333672
-0.0335707
-0.0333672
-0.0333672
0
-0.0335707
-0.0333672
-0.033469
-0.033469
0
-0.0333672
-0.0335707
-0.0333672
-0.0301119
0
0
28
0.0017294
0.0283825
0.0333672
0.0335707
0.0333672
0.0335707
0.0333672
0.0333672
0
0.033469
0.033469
2
0.0333672
0.0335707
0.0333672
0.0333672
0
0.0335707
0.0333672
0.033469
0.033469
0
0.0333672
0.0335707
0.0333672
0.0335707
0.0333672
0.0333672
0
0.0335707
0.0333672
0.033469
0.033469
0
0.0283825
-0.0251272
-0.0333672
-0.0335707
-0.0333672
-0.0333672
0
-0.033469
-0.033469
2
-0.0333672
-0.0335707
-0.0333672
-0.0333672
0
-0.0335707
-0.0333672
-0.0335707
-0.0333672
-0.0333672
0
-0.0335707
-0.0333672
-0.0335707
-0.0333672
-0.0333672
0
-0.0335707
-0.0333672
-0.033469
-0.033469
0
-0.0333672
-0.0335707
-0.0300102
-0.00335707
0
0
96
0.0017294
0.0283825
0.0333672
0.0335707
0.0333672
0.0335707
0.0333672
0.0333672
0
0.033469
0.033469
2
0.0333672
0.0335707
0.0333672
0.0333672
0
0.0335707
0.0333672
0.033469
0.033469
0
0.0333672
0.0335707
0.0333672
0.0335707
0.0333672
0.0333672
0
0.0335707
0.0333672
0.033469
0.033469
0
0.0283825
-0.0251272
-0.0333672
-0.0335707
-0.0333672
-0.0333672
0
-0.033469
-0.033469
2
-0.0333672
-0.0335707
-0.0333672
-0.0333672
0
-0.0335707
-0.0333672
-0.0335707
-0.0333672
-0.0333672
0
-0.0335707
-0.0333672
-0.0335707
-0.0333672
-0.0333672
0
-0.0335707
-0.0333672
-0.033469
-0.033469
0
-0.0333672
-0.0335707
-0.0300102
-0.00335707
0
0
16
0.0017294
0.0283825
0.0333672
0.0335707
0.0333672
0.0335707
0.0333672
0.0333672
0
0.033469
0.033469
2
0.0333672
0.0335707
0.0333672
0.0333672
0
0.0335707
0.0333672
0.033469
0.033469
0
0.0333672
0.0335707
0.0333672
0.0335707
0.0333672
0.0333672
0
0.0335707
0.0333672
0.033469
0.033469
0
0.0283825
-0.0251272
-0.0333672
-0.0335707
-0.0333672
-0.0333672
0
-0.033469
-0.033469
2
-0.0333672
-0.0335707
-0.0333672
-0.0333672
0
-0.0335707
-0.0333672
-0.0335707
-0.0333672
-0.0333672
0
-0.0335707
-0.0333672
-0.0335707
-0.0333672
-0.0333672
0
-0.0335707
-0.0333672
-0.033469
-0.033469
0
-0.0333672
-0.0335707
-0.0300102
-0.00335707
0
0
96
0.0017294
0.0283825
0.0333672
0.0335707
0.0333672
0.0335707
0.0333672
0.0333672
0
0.033469
0.033469
2
0.0333672
0.0335707
0.0333672
0.0333672
0
0.0335707
0.0333672
0.033469
0.033469
0
0.0333672
0.0335707
0.0333672
0.0335707
0.0333672
0.0333672
0
0.0335707
0.0333672
0.033469
0.033469
0
0.0283825
-0.0251272
-0.0333672
-0.0335707
-0.0333672
-0.0333672
0
-0.033469
-0.033469
2
-0.0333672
-0.0335707
-0.0333672
-0.0333672
0
-0.0335707
-0.0333672
-0.0335707
-0.0333672
-0.0333672
0
-0.0335707
-0.0333672
-0.0335707
-0.0333672
-0.0333672
0
-0.0335707
-0.0333672
-0.033469
-0.033469
0
-0.0333672
-0.0335707
-0.0300102
-0.00335707
0
0
28
0.0267548
0.033469
0.033469
1
0.0333672
0.0333672
0
0.0335707
0.0333672
0.033469
0.033469
2
0.0333672
0.0333672
0
0.0335707
0.0333672
0.0335707
0.0333672
0.0333672
0
0.0335707
0.0333672
0.0335707
0.0333672
0.0335707
0.0333672
0.0333672
0
0.033469
0.033469
2
-0.0234995
-0.033469
-0.0333672
-0.0333672
0
-0.0335707
-0.0333672
-0.033469
-0.033469
0
-0.0333672
-0.0335707
-0.0333672
-0.0335707
-0.0333672
-0.0333672
0
-0.0335707
-0.0333672
-0.033469
-0.033469
0
-0.0333672
-0.0335707
-0.0333672
-0.0335707
-0.0333672
-0.0333672
0
-0.033469
-0.033469
2
-0.0333672
-0.0333672
0
-0.0034588
0
0
97
0.0267548
0.033469
0.033469
1
0.0333672
0.0333672
0
0.0335707
0.0333672
0.033469
0.033469
2
0.0333672
0.0333672
0
0.0335707
0.0333672
0.0335707
0.0333672
0.0333672
0
0.0335707
0.0333672
0.0335707
0.0333672
0.0335707
0.0333672
0.0333672
0
0.033469
0.033469
2
-0.0234995
-0.033469
-0.0333672
-0.0333672
0
-0.0335707
-0.0333672
-0.033469
-0.033469
0
-0.0333672
-0.0335707
-0.0333672
-0.0335707
-0.0333672
-0.0333672
0
-0.0335707
-0.0333672
-0.033469
-0.033469
0
-0.0333672
-0.0335707
-0.0333672
-0.0335707
-0.0333672
-0.0333672
0
-0.033469
-0.033469
2
-0.0333672
-0.0333672
0
-0.0034588
0
0
17
0.0267548
0.033469
0.033469
1
0.0333672
0.0333672
0
0.0335707
0.0333672
0.033469
0.033469
2
0.0333672
0.0333672
0
0.0335707
0.0333672
0.0335707
0.0333672
0.0333672
0
0.0335707
0.0333672
0.0335707
0.0333672
0.0335707
0.0333672
0.0333672
0
0.033469
0.033469
2
-0.0234995
-0.033469
-0.0333672
-0.0333672
0
-0.0335707
-0.0333672
-0.033469
-0.033469
0
-0.0333672
-0.0335707
-0.0333672
-0.0335707
-0.0333672
-0.0333672
0
-0.0335707
-0.0333672
-0.033469
-0.033469
0
-0.0333672
-0.0335707
-0.0333672
-0.0335707
-0.0333672
-0.0333672
0
-0.033469
-0.033469
2
-0.0333672
-0.0333672
0
-0.0034588
0
0
97
0.0267548
0.033469
0.033469
1
0.0333672
0.0333672
0
0.0335707
0.0333672
0.033469
0.033469
2
0.0333672
0.0333672
0
0.0335707
0.0333672
0.0335707
0.0333672
0.0333672
0
0.0335707
0.0333672
0.0335707
0.0333672
0.0335707
0.0333672
0.0333672
0
0.033469
0.033469
2
-0.0234995
-0.033469
-0.0333672
-0.0333672
0
-0.0335707
-0.0333672
-0.033469
-0.033469
0
-0.0333672
-0.0335707
-0.0333672
-0.0335707
-0.0333672
-0.0333672
0
-0.0335707
-0.0333672
-0.033469
-0.033469
0
-0.0333672
-0.0335707
-0.0333672
-0.0335707
-0.0333672
-0.0333672
0
-0.033469
-0.033469
2
-0.0333672
-0.0333672
0
-0.0034588
0
0
28
0.0233978
0.033469
0.033469
0
0.0333672
0.0335707
0.0333672
0.0333672
0
0.0335707
0.0333672
0.033469
0.033469
0
0.0333672
0.0335707
0.0333672
0.0335707
0.0333672
0.0333672
0
0.0335707
0.0333672
0.033469
0.033469
0
0.0333672
0.0335707
0.0333672
0.0333672
0
0.0335707
0.0333672
0.033469
0.033469
0
0.0333672
-0.0166836
-0.0333672
-0.0335707
-0.0333672
-0.0333672
0
-0.0335707
-0.0333672
-0.0335707
-0.0333672
-0.0333672
0
-0.0335707
-0.0333672
-0.0335707
-0.0333672
-0.0333672
0
-0.0335707
-0.0333672
-0.033469
-0.033469
0
-0.0333672
-0.0335707
-0.0333672
-0.0333672
0
-0.0335707
-0.0333672
-0.033469
-0.033469
0
-0.0333672
-0.0335707
-0.0333672
-0.00671414
0
0
97
0.0233978
0.033469
0.033469
0
0.0333672
0.0335707
0.0333672
0.0333672
0
0.0335707
0.0333672
0.033469
0.033469
0
0.0333672
0.0335707
0.0333672
0.0335707
0.0333672
0.0333672
0
0.0335707
0.0333672
0.033469
0.033469
0
0.0333672
0.0335707
0.0333672
0.0333672
0
0.0335707
0.0333672
0.033469
0.033469
0
0.0333672
-0.0166836
-0.0333672
-0.0335707
-0.0333672
-0.0333672
0
-0.0335707
-0.0333672
-0.0335707
-0.0333672
-0.0333672
0
-0.0335707
-0.0333672
-0.0335707
-0.0333672
-0.0333672
0
-0.0335707
-0.0333672
-0.033469
-0.033469
0
-0.0333672
-0.0335707
-0.0333672
-0.0333672
0
-0.0335707
-0.0333672
-0.033469
-0.033469
0
-0.0333672
-0.0335707
-0.0333672
-0.00671414
0
0
17
0.0233978
0.033469
0.033469
0
0.0333672
0.0335707
0.0333672
0.0333672
0
0.0335707
0.0333672
0.033469
0.033469
0
0.0333672
0.0335707
0.0333672
0.0335707
0.0333672
0.0333672
0
0.0335707
0.0333672
0.033469
0.033469
0
0.0333672
0.0335707
0.0333672
0.0333672
0
0.0335707
0.0333672
0.033469
0.033469
0
0.0333672
-0.0166836
-0.0333672
-0.0335707
-0.0333672
-0.0333672
0
-0.0335707
-0.0333672
-0.0335707
-0.0333672
-0.0333672
0
-0.0335707
-0.0333672
-0.0335707
-0.0333672
-0.0333672
0
-0.0335707
-0.0333672
-0.033469
-0.033469
0
-0.0333672
-0.0335707
-0.0333672
-0.0333672
0
-0.0335707
-0.0333672
-0.033469
-0.033469
0
-0.0333672
-0.0335707
-0.0333672
-0.00671414
0
0
97
0.0233978
0.033469
0.033469
0
0.0333672
0.0335707
0.0333672
0.0333672
0
0.0335707
0.0333672
0.033469
0.033469
0
0.0333672
0.0335707
0.0333672
0.0335707
0.0333672
0.0333672
0
0.0335707
0.0333672
0.033469
0.033469
0
0.0333672
0.0335707
0.0333672
0.0333672
0
0.0335707
0.0333672
0.033469
0.033469
0
0.0333672
-0.0166836
-0.0333672
-0.0335707
-0.0333672
-0.0333672
0
-0.0335707
-0.0333672
-0.0335707
-0.0333672
-0.0333672
0
-0.0335707
-0.0333672
-0.0335707
-0.0333672
-0.0333672
0
-0.0335707
-0.0333672
-0.033469
-0.033469
0
-0.0333672
-0.0335707
-0.0333672
-0.0333672
0
-0.0335707
-0.0333672
-0.033469
-0.033469
0
-0.0333672
-0.0335707
-0.0333672
-0.00671414
0
0
28
0.0200407
0.033469
0.033469
1
0.0333672
0.0333672
0
0.0335707
0.0333672
0.0335707
0.0333672
0.0335707
0.0333672
0.0333672
0
0.0335707
0.0333672
0.0335707
0.0333672
0.0333672
0
0.033469
0.033469
2
0.0333672
0.0335707
0.0333672
0.0333672
0
0.033469
0.033469
2
-0.0100712
-0.033469
-0.0333672
-0.0335707
-0.0333672
-0.0333672
0
-0.0335707
-0.0333672
-0.033469
-0.033469
0
-0.0333672
-0.0335707
-0.0333672
-0.0335707
-0.0333672
-0.0333672
0
-0.033469
-0.033469
2
-0.0333672
-0.0335707
-0.0333672
-0.0333672
0
-0.0335707
-0.0333672
-0.033469
-0.033469
0
-0.0333672
-0.0335707
-0.00996948
0
0
97
0.0200407
0.033469
0.033469
1
0.0333672
0.0333672
0
0.0335707
0.0333672
0.0335707
0.0333672
0.0335707
0.0333672
0.0333672
0
0.0335707
0.0333672
0.0335707
0.0333672
0.0333672
0
0.033469
0.033469
2
0.0333672
0.0335707
0.0333672
0.0333672
0
0.033469
0.033469
2
-0.0100712
-0.033469
-0.0333672
-0.0335707
-0.0333672
-0.0333672
0
-0.0335707
-0.0333672
-0.033469
-0.033469
0
-0.0333672
-0.0335707
-0.0333672
-0.0335707
-0.0333672
-0.0333672
0
-0.033469
-0.033469
2
-0.0333672
-0.0335707
-0.0333672
-0.0333672
0
-0.0335707
-0.0333672
-0.033469
-0.033469
0
-0.0333672
-0.0335707
-0.00996948
0
0
17
0.0200407
0.033469
0.033469
1
0.0333672
0.0333672
0
0.0335707
0.0333672
0.0335707
0.0333672
0.0335707
0.0333672
0.0333672
0
0.0335707
0.0333672
0.0335707
0.0333672
0.0333672
0
0.033469
0.033469
2
0.0333672
0.0335707
0.0333672
0.0333672
0
0.033469
0.033469
2
-0.0100712
-0.033469
-0.0333672
-0.0335707
-0.0333672
-0.0333672
0
-0.0335707
-0.0333672
-0.033469
-0.033469
0
-0.0333672
-0.0335707
-0.0333672
-0.0335707
-0.0333672
-0.0333672
0
-0.033469
-0.033469
2
-0.0333672
-0.0335707
-0.0333672
-0.0333672
0
-0.0335707
-0.0333672
-0.033469
-0.033469
0
-0.0333672
-0.0335707
-0.00996948
0
0
97
0.0200407
0.033469
0.033469
1
0.0333672
0.0333672
0
0.0335707
0.0333672
0.0335707
0.0333672
0.0335707
0.0333672
0.0333672
0
0.0335707
0.0333672
0.0335707
0.0333672
0.0333672
0
0.033469
0.033469
2
0.0333672
0.0335707
0.0333672
0.0333672
0
0.033469
0.033469
2
-0.0100712
-0.033469
-0.0333672
-0.0335707
-0.0333672
-0.0333672
0
-0.0335707
-0.0333672
-0.033469
-0.033469
0
-0.0333672
-0.0335707
-0.0333672
-0.0335707
-0.0333672
-0.0333672
0
-0.033469
-0.033469
2
-0.0333672
-0.0335707
-0.0333672
-0.0333672
0
-0.0335707
-0.0333672
-0.033469
-0.033469
0
-0.0333672
-0.0335707
-0.00996948
0
0
45

shape_id 5
num_samples 3636
0
0
1219
0.0034487
0.0034487
2
0.000671428
0.000671428
2
6.10389e-05
6.10389e-05
2
-4.57792e-05
-4.57792e-05
2
0.000244156
0.000244156
2
0.000488311
0.000488311
2
0.000412012
0.000412012
2
0.000244156
0.000244156
2
0.000183117
0.000183117
2
0.000289935
0.000289935
2
0.000396753
0.000396753
2
0.000350974
0.000350974
2
0.000289935
0.000289935
2
0.000274675
0.000274675
2
0.000305194
0.000305194
2
0.000350974
0.000350974
2
0.000335714
0.000335714
2
0.000305194
0.000305194
10
0.000320454
0.000320454
2
0.000305194
0.000305194
6
0.000289935
0.000289935
6
0.000305194
0.000305194
2
0.000259415
0.000259415
2
0.000274675
0.000274675
6
0.000244156
0.000244156
2
0.000259415
0.000259415
2
0.000228896
0.000228896
2
0.000213636
0.000213636
2
0.000228896
0.000228896
2
0.000183117
0.000183117
2
0.000198376
0.000198376
2
0.000167857
0.000167857
6
0.000137337
0.000137337
2
0.000122078
0.000122078
6
9.15583e-05
9.15583e-05
2
7.62986e-05
7.62986e-05
2
6.10389e-05
6.10389e-05
2
3.05194e-05
3.05194e-05
6
0
0
2
-3.05194e-05
-3.05194e-05
6
-7.62986e-05
-7.62986e-05
6
-0.000122078
-0.000122078
6
-0.000152597
-0.000152597
2
-0.000183117
-0.000183117
2
-0.000198376
-0.000198376
2
-0.000244156
-0.000244156
6
-0.000289935
-0.000289935
2
-0.000305194
-0.000305194
2
-0.000335714
-0.000335714
2
-0.000350974
-0.000350974
2
-0.000381493
-0.000381493
2
-0.000427272
-0.000427272
6
-0.000457792
-0.000457792
2
-0.000503571
-0.000503571
6
-0.00054935
-0.00054935
2
-0.00056461
-0.00056461
2
-0.000595129
-0.000595129
2
-0.000625649
-0.000625649
2
-0.000640908
-0.000640908
2
-0.000686687
-0.000686687
6
-0.000717207
-0.000717207
2
-0.000747726
-0.000747726
2
-0.000762986
-0.000762986
2
-0.000808765
-0.000808765
2
-0.000793505
-0.000793505
2
-0.000839285
-0.000839285
1
-0.000228896
0.000854544
0.000854544
2
0.000869804
0.000869804
2
0.000915583
0.000915583
2
0.000900324
0.000900324
2
0.000946103
0.000946103
2
0.000930843
0.000930843
2
0.000961362
0.000961362
2
0.000991882
0.000991882
2
0.000976622
0.000976622
2
0.0010224
0.0010224
2
0.00100714
0.00100714
2
0.0010224
0.0010224
2
0.00105292
0.00105292
2
0.0010224
0.0010224
2
0.00106818
0.00106818
2
0.00105292
0.00105292
6
0.00106818
0.00106818
2
0.00103766
0.00103766
2
0.00108344
0.00108344
2
0.00105292
0.00105292
2
0.00103766
0.00103766
2
0.00106818
0.00106818
2
0.0010224
0.0010224
2
0.00105292
0.00105292
2
0.00100714
0.00100714
10
0.000961362
0.000961362
2
0.000976622
0.000976622
2
0.000915583
0.000915583
2
0.000930843
0.000930843
2
0.000900324
0.000900324
2
0.000854544
0.000854544
