# Pulseq sequence file
# Created by MATLAB mr toolbox

[VERSION]
major 1
minor 1
revision 0

# Format of blocks:
#  #  D RF  GX  GY  GZ ADC
[BLOCKS]
   1  0  1   1   1   2  0
   2  1  0   0   0   0  0
   3  0  2   3   3   4  0
   4  0  0   5   6   7  1
   5  0  3   3   3   4  0
   6  0  0   8   9  10  2
   7  0  4   3   3   4  0
   8  0  0  11  12  13  3
   9  0  5   3   3   4  0
  10  0  0   5   6  14  4
  11  0  6   3   3   4  0
  12  0  0   8   9  15  5
  13  0  7   3   3   4  0
  14  0  0  11  12  16  6
  15  0  8   3   3   4  0
  16  0  0   5   6  17  7
  17  0  9   3   3   4  0
  18  0  0   8   9  18  8
  19  0 10   3   3   4  0
  20  0  0  11  12  19  9
  21  0 11   3   3   4  0
  22  0  0   5   6  20 10
  23  0 12   3   3   4  0
  24  0  0   8   9  21  6
  25  0 13   3   3   4  0
  26  0  0  11  12  22 11
  27  0 14   3   3   4  0
  28  0  0   5   6  23 12
  29  0 15   3   3   4  0
  30  0  0   8   9  24 13
  31  0 16   3   3   4  0
  32  0  0  11  12  25 14
  33  0 17   3   3   4  0
  34  0  0   5   6  26 15
  35  0 18   3   3   4  0
  36  0  0   8   9  27 16
  37  0 19   3   3   4  0
  38  0  0  11  12  28 17
  39  0 20   3   3   4  0
  40  0  0   5   6  29 13
  41  0 21   3   3   4  0
  42  0  0   8   9  30 18
  43  0 22   3   3   4  0
  44  0  0  11  12  31 19
  45  0 23   3   3   4  0
  46  0  0   5   6  32 20
  47  0 24   3   3   4  0
  48  0  0   8   9  33 21
  49  0 25   3   3   4  0
  50  0  0  11  12  34  9
  51  0 26   3   3   4  0
  52  0  0   5   6  35 22
  53  0 27   3   3   4  0
  54  0  0   8   9  36 10
  55  0 28   3   3   4  0
  56  0  0  11  12  37 20
  57  0 29   3   3   4  0
  58  0  0   5   6  38 23
  59  0 30   3   3   4  0
  60  0  0   8   9  39  4
  61  0 31   3   3   4  0
  62  0  0  11  12  40 24
  63  0 32   3   3   4  0
  64  0  0   5   6  41 14
  65  0 33   3   3   4  0
  66  0  0   8   9  42 16
  67  0 34   3   3   4  0
  68  0  0  11  12  43 25
  69  0 35   3   3   4  0
  70  0  0   5   6  44  2
  71  0 36   3   3   4  0
  72  0  0   8   9  45 24
  73  0 37   3   3   4  0
  74  0  0  11  12  46 18
  75  0 38   3   3   4  0
  76  0  0   5   6  47 11
  77  0 39   3   3   4  0
  78  0  0   8   9  48 26
  79  0 40   3   3   4  0
  80  0  0  11  12  49  7
  81  0 41   3   3   4  0
  82  0  0   5   6  50 22
  83  0 42   3   3   4  0
  84  0  0   8   9  51 22
  85  0 43   3   3   4  0
  86  0  0  11  12  52  7
  87  2  0   0   0   0  0
  88  0  1   1   1   2  0
  89  1  0   0   0   0  0
  90  0  2   3   3   4  0
  91  0  0   8   9   7 26
  92  0  3   3   3   4  0
  93  0  0  11  12  10 11
  94  0  4   3   3   4  0
  95  0  0   5   6  13 18
  96  0  5   3   3   4  0
  97  0  0   8   9  14 24
  98  0  6   3   3   4  0
  99  0  0  11  12  15  2
 100  0  7   3   3   4  0
 101  0  0   5   6  16 25
 102  0  8   3   3   4  0
 103  0  0   8   9  17 16
 104  0  9   3   3   4  0
 105  0  0  11  12  18 14
 106  0 10   3   3   4  0
 107  0  0   5   6  19 24
 108  0 11   3   3   4  0
 109  0  0   8   9  20  4
 110  0 12   3   3   4  0
 111  0  0  11  12  21 23
 112  0 13   3   3   4  0
 113  0  0   5   6  22 20
 114  0 14   3   3   4  0
 115  0  0   8   9  23 10
 116  0 15   3   3   4  0
 117  0  0  11  12  24 22
 118  0 16   3   3   4  0
 119  0  0   5   6  25  9
 120  0 17   3   3   4  0
 121  0  0   8   9  26 21
 122  0 18   3   3   4  0
 123  0  0  11  12  27 20
 124  0 19   3   3   4  0
 125  0  0   5   6  28 19
 126  0 20   3   3   4  0
 127  0  0   8   9  29 18
 128  0 21   3   3   4  0
 129  0  0  11  12  30 13
 130  0 22   3   3   4  0
 131  0  0   5   6  31 17
 132  0 23   3   3   4  0
 133  0  0   8   9  32 16
 134  0 24   3   3   4  0
 135  0  0  11  12  33  1
 136  0 25   3   3   4  0
 137  0  0   5   6  34 14
 138  0 26   3   3   4  0
 139  0  0   8   9  35 13
 140  0 27   3   3   4  0
 141  0  0  11  12  36 12
 142  0 28   3   3   4  0
 143  0  0   5   6  37 11
 144  0 29   3   3   4  0
 145  0  0   8   9  38  6
 146  0 30   3   3   4  0
 147  0  0  11  12  39 10
 148  0 31   3   3   4  0
 149  0  0   5   6  40  9
 150  0 32   3   3   4  0
 151  0  0   8   9  41  8
 152  0 33   3   3   4  0
 153  0  0  11  12  42  7
 154  0 34   3   3   4  0
 155  0  0   5   6  43  6
 156  0 35   3   3   4  0
 157  0  0   8   9  44  5
 158  0 36   3   3   4  0
 159  0  0  11  12  45  4
 160  0 37   3   3   4  0
 161  0  0   5   6  46  3
 162  0 38   3   3   4  0
 163  0  0   8   9  47  2
 164  0 39   3   3   4  0
 165  0  0  11  12  48  1
 166  0 40   3   3   4  0
 167  0  0   5   6  49  1
 168  0 41   3   3   4  0
 169  0  0   8   9  50  2
 170  0 42   3   3   4  0
 171  0  0  11  12  51  3
 172  0 43   3   3   4  0
 173  0  0   5   6  52  4
 174  2  0   0   0   0  0
 175  0  1   1   1  53  0
 176  1  0   0   0   0  0
 177  0  2   3   3   4  0
 178  0  0  11  12   7  5
 179  0  3   3   3   4  0
 180  0  0   5   6  10  6
 181  0  4   3   3   4  0
 182  0  0   8   9  13  7
 183  0  5   3   3   4  0
 184  0  0  11  12  14  8
 185  0  6   3   3   4  0
 186  0  0   5   6  15  9
 187  0  7   3   3   4  0
 188  0  0   8   9  16 10
 189  0  8   3   3   4  0
 190  0  0  11  12  17  6
 191  0  9   3   3   4  0
 192  0  0   5   6  18 11
 193  0 10   3   3   4  0
 194  0  0   8   9  19 12
 195  0 11   3   3   4  0
 196  0  0  11  12  20 13
 197  0 12   3   3   4  0
 198  0  0   5   6  21 14
 199  0 13   3   3   4  0
 200  0  0   8   9  22  1
 201  0 14   3   3   4  0
 202  0  0  11  12  23 16
 203  0 15   3   3   4  0
 204  0  0   5   6  24 17
 205  0 16   3   3   4  0
 206  0  0   8   9  25 13
 207  0 17   3   3   4  0
 208  0  0  11  12  26 18
 209  0 18   3   3   4  0
 210  0  0   5   6  27 19
 211  0 19   3   3   4  0
 212  0  0   8   9  28 20
 213  0 20   3   3   4  0
 214  0  0  11  12  29 21
 215  0 21   3   3   4  0
 216  0  0   5   6  30  9
 217  0 22   3   3   4  0
 218  0  0   8   9  31 22
 219  0 23   3   3   4  0
 220  0  0  11  12  32 10
 221  0 24   3   3   4  0
 222  0  0   5   6  33 20
 223  0 25   3   3   4  0
 224  0  0   8   9  34 23
 225  0 26   3   3   4  0
 226  0  0  11  12  35  4
 227  0 27   3   3   4  0
 228  0  0   5   6  36 24
 229  0 28   3   3   4  0
 230  0  0   8   9  37 14
 231  0 29   3   3   4  0
 232  0  0  11  12  38 16
 233  0 30   3   3   4  0
 234  0  0   5   6  39 25
 235  0 31   3   3   4  0
 236  0  0   8   9  40  2
 237  0 32   3   3   4  0
 238  0  0  11  12  41 24
 239  0 33   3   3   4  0
 240  0  0   5   6  42 18
 241  0 34   3   3   4  0
 242  0  0   8   9  43 11
 243  0 35   3   3   4  0
 244  0  0  11  12  44 26
 245  0 36   3   3   4  0
 246  0  0   5   6  45  7
 247  0 37   3   3   4  0
 248  0  0   8   9  46 22
 249  0 38   3   3   4  0
 250  0  0  11  12  47 22
 251  0 39   3   3   4  0
 252  0  0   5   6  48  7
 253  0 40   3   3   4  0
 254  0  0   8   9  49 26
 255  0 41   3   3   4  0
 256  0  0  11  12  50 11
 257  0 42   3   3   4  0
 258  0  0   5   6  51 27
 259  0 43   3   3   4  0
 260  0  0   8   9  52 24
 261  2  0   0   0   0  0
 262  0  1   1   1   2  0
 263  1  0   0   0   0  0
 264  0  2   3   3   4  0
 265  0  0   5   6   7  2
 266  0  3   3   3   4  0
 267  0  0   8   9  10 25
 268  0  4   3   3   4  0
 269  0  0  11  12  13 16
 270  0  5   3   3   4  0
 271  0  0   5   6  14 14
 272  0  6   3   3   4  0
 273  0  0   8   9  15 24
 274  0  7   3   3   4  0
 275  0  0  11  12  16  4
 276  0  8   3   3   4  0
 277  0  0   5   6  17 23
 278  0  9   3   3   4  0
 279  0  0   8   9  18 20
 280  0 10   3   3   4  0
 281  0  0  11  12  19 10
 282  0 11   3   3   4  0
 283  0  0   5   6  20 28
 284  0 12   3   3   4  0
 285  0  0   8   9  21  9
 286  0 13   3   3   4  0
 287  0  0  11  12  22 21
 288  0 14   3   3   4  0
 289  0  0   5   6  23 20
 290  0 15   3   3   4  0
 291  0  0   8   9  24  5
 292  0 16   3   3   4  0
 293  0  0  11  12  25 27
 294  0 17   3   3   4  0
 295  0  0   5   6  26 13
 296  0 18   3   3   4  0
 297  0  0   8   9  27 17
 298  0 19   3   3   4  0
 299  0  0  11  12  28 16
 300  0 20   3   3   4  0
 301  0  0   5   6  29  1
 302  0 21   3   3   4  0
 303  0  0   8   9  30 14
 304  0 22   3   3   4  0
 305  0  0  11  12  31 13
 306  0 23   3   3   4  0
 307  0  0   5   6  32 12
 308  0 24   3   3   4  0
 309  0  0   8   9  33 11
 310  0 25   3   3   4  0
 311  0  0  11  12  34  6
 312  0 26   3   3   4  0
 313  0  0   5   6  35 10
 314  0 27   3   3   4  0
 315  0  0   8   9  36  9
 316  0 28   3   3   4  0
 317  0  0  11  12  37  8
 318  0 29   3   3   4  0
 319  0  0   5   6  38  7
 320  0 30   3   3   4  0
 321  0  0   8   9  39  6
 322  0 31   3   3   4  0
 323  0  0  11  12  40  5
 324  0 32   3   3   4  0
 325  0  0   5   6  41  4
 326  0 33   3   3   4  0
 327  0  0   8   9  42  3
 328  0 34   3   3   4  0
 329  0  0  11  12  43  2
 330  0 35   3   3   4  0
 331  0  0   5   6  44 15
 332  0 36   3   3   4  0
 333  0  0   8   9  45  1
 334  0 37   3   3   4  0
 335  0  0  11  12  46  2
 336  0 38   3   3   4  0
 337  0  0   5   6  47  3
 338  0 39   3   3   4  0
 339  0  0   8   9  48  4
 340  0 40   3   3   4  0
 341  0  0  11  12  49  5
 342  0 41   3   3   4  0
 343  0  0   5   6  50  6
 344  0 42   3   3   4  0
 345  0  0   8   9  51  7
 346  0 43   3   3   4  0
 347  0  0  11  12  52  8
 348  2  0   0   0   0  0
 349  0  1   1   1  53  0
 350  1  0   0   0   0  0
 351  0  2   3   3   4  0
 352  0  0   8   9   7  9
 353  0  3   3   3   4  0
 354  0  0  11  12  10 10
 355  0  4   3   3   4  0
 356  0  0   5   6  13  6
 357  0  5   3   3   4  0
 358  0  0   8   9  14 11
 359  0  6   3   3   4  0
 360  0  0  11  12  15 12
 361  0  7   3   3   4  0
 362  0  0   5   6  16 13
 363  0  8   3   3   4  0
 364  0  0   8   9  17 14
 365  0  9   3   3   4  0
 366  0  0  11  12  18 15
 367  0 10   3   3   4  0
 368  0  0   5   6  19 16
 369  0 11   3   3   4  0
 370  0  0   8   9  20 17
 371  0 12   3   3   4  0
 372  0  0  11  12  21 13
 373  0 13   3   3   4  0
 374  0  0   5   6  22 18
 375  0 14   3   3   4  0
 376  0  0   8   9  23 19
 377  0 15   3   3   4  0
 378  0  0  11  12  24 20
[RF]
1       627.54 1 2 0 0
2      153.588 5 6 0 0
3      158.358 5 6 0 0
4      154.828 5 6 0 0
5      159.312 5 6 0 0
6      164.749 5 6 0 0
7      166.753 5 6 0 0
8      166.657 5 6 0 0
9      167.707 5 6 0 0
10      170.855 5 6 0 0
11      175.148 5 6 0 0
12      178.773 5 6 0 0
13      180.871 5 6 0 0
14      182.016 5 6 0 0
15      183.638 5 6 0 0
16      187.167 5 6 0 0
17       192.51 5 6 0 0
18      198.329 5 6 0 0
19      203.003 5 6 0 0
20      205.865 5 6 0 0
21      207.773 5 6 0 0
22       210.73 5 6 0 0
23      216.549 5 6 0 0
24      224.658 5 6 0 0
25      233.244 5 6 0 0
26      240.399 5 6 0 0
27       245.55 5 6 0 0
28      249.938 5 6 0 0
29      255.662 5 6 0 0
30       264.82 5 6 0 0
31       278.08 5 6 0 0
32      294.202 5 6 0 0
33      310.992 5 6 0 0
34      326.446 5 6 0 0
35      339.992 5 6 0 0
36      354.111 5 6 0 0
37       374.24 5 6 0 0
38      407.819 5 6 0 0
39      462.863 5 6 0 0
40      544.713 5 6 0 0
41      653.369 5 6 0 0
42      781.486 5 6 0 0
43      1562.88 5 6 0 0

# Format of arbitrary gradients:
# id amplitude shape_id
# ..      Hz/m     ....
[GRADIENTS]
1            0 3 
2       319326 4 
3            0 7 
4       970973 8 
5       677840 9 
6       684500 10 
7      7170.11 11 
8       681737 12 
9       689945 13 
10      7170.11 14 
11       687250 15 
12       679194 16 
13      21510.3 11 
14      21510.3 14 
15      35850.6 11 
16      35850.6 14 
17      50209.2 11 
18      50209.2 14 
19      64549.4 11 
20      64549.4 14 
21      78889.6 11 
22      78889.6 14 
23      93229.9 11 
24      93229.9 14 
25       107570 11 
26       107570 14 
27       121910 11 
28       121910 14 
29       136251 11 
30       136251 14 
31       150609 11 
32       150609 14 
33       164949 11 
34       164949 14 
35       179290 11 
36       179290 14 
37       193630 11 
38       193630 14 
39       207970 11 
40       207970 14 
41       222310 11 
42       222310 14 
43       236651 11 
44       236651 14 
45       251009 11 
46       251009 14 
47       265349 11 
48       265349 14 
49       279690 11 
50       279690 14 
51       294030 11 
52       294030 14 
53       319326 17 

# Format of ADC events:
# id num dwell delay freq phase
# ..  ..    ns    us   Hz   rad
[ADC]
 1 3017   4000   0 0 0
 2 3017   4000   0 0 2.04204
 3 3017   4000   0 0 -0.157051
 4 3017   4000   0 0 -0.314102
 5 3017   4000   0 0 1.57089
 6 3017   4000   0 0 -0.785446
 7 3017   4000   0 0 -1.09955
 8 3017   4000   0 0 0.628395
 9 3017   4000   0 0 -1.88499
10 3017   4000   0 0 -2.35615
11 3017   4000   0 0 2.82749
12 3017   4000   0 0 2.1991
13 3017   4000   0 0 -2.67044
14 3017   4000   0 0 0.785446
15 3017   4000   0 0 -0
16 3017   4000   0 0 1.2566
17 3017   4000   0 0 -1.72794
18 3017   4000   0 0 -1.57089
19 3017   4000   0 0 1.5707
20 3017   4000   0 0 0.471153
21 3017   4000   0 0 1.41365
22 3017   4000   0 0 3.14159
23 3017   4000   0 0 -0.942497
24 3017   4000   0 0 2.35615
25 3017   4000   0 0 -2.5132
26 3017   4000   0 0 2.98454
27 3017   4000   0 0 -1.5707
28 3017   4000   0 0 -3.14159

# Format of delays:
# id delay (us)
[DELAYS]
1 1400000
2 3000000

# Sequence Shapes
[SHAPES]

shape_id 1
num_samples 39908
0
0
335
0.19999
0.19999
2
0
0
106
-0.19999
-0.19999
2
0
0
794
0.25
0.25
2
0
0
794
-0.25
-0.25
2
0
0
1594
0.25
0.25
2
0
0
794
-0.25
-0.25
2
0
0
794
0.19999
0.19999
2
0
0
106
-0.19999
-0.19999
2
0
0
794
0.25
0.25
2
0
0
794
-0.25
-0.25
2
0
0
1594
0.25
0.25
2
0
0
794
-0.25
-0.25
2
0
0
794
0.19999
0.19999
2
0
0
106
-0.19999
-0.19999
2
0
0
794
0.25
0.25
2
0
0
794
-0.25
-0.25
2
0
0
1594
0.25
0.25
2
0
0
794
-0.25
-0.25
2
0
0
794
0.19999
0.19999
2
0
0
102
-0.19999
-0.19999
2
0
0
794
0.25
0.25
2
0
0
794
-0.25
-0.25
2
0
0
1594
0.25
0.25
2
0
0
794
-0.25
-0.25
2
0
0
794
0.19999
0.19999
2
0
0
106
-0.19999
-0.19999
2
0
0
794
0.25
0.25
2
0
0
794
-0.25
-0.25
2
0
0
1594
0.25
0.25
2
0
0
794
-0.25
-0.25
2
0
0
794
0.19999
0.19999
2
0
0
106
-0.19999
-0.19999
2
0
0
794
0.25
0.25
2
0
0
794
-0.25
-0.25
2
0
0
1594
0.25
0.25
2
0
0
794
-0.25
-0.25
2
0
0
794
0.19999
0.19999
2
0
0
106
-0.19999
-0.19999
2
0
0
794
0.25
0.25
2
0
0
794
-0.25
-0.25
2
0
0
1594
0.25
0.25
2
0
0
794
-0.25
-0.25
2
0
0
794
0.19999
0.19999
2
0
0
102
-0.19999
-0.19999
2
0
0
794
0.25
0.25
2
0
0
794
-0.25
-0.25
2
0
0
1594
0.25
0.25
2
0
0
794
-0.25
-0.25
2
0
0
794
0.19999
0.19999
2
0
0
102
-0.19999
-0.19999
2
0
0
169

shape_id 2
num_samples 39908
0
0
335
0.000122574
0
0
112
-0.000122574
0
0
794
0.000122574
0
0
800
-0.000122574
0
0
1594
0.000122574
0
0
800
-0.000122574
0
0
794
0.000122574
0
0
112
-0.000122574
0
0
794
0.500138
0
0
800
-0.500138
0
0
1594
0.500138
0
0
800
-0.500138
0
0
794
0.000122574
0
0
112
-0.000122574
0
0
794
0.500138
0
0
800
-0.500138
0
0
1594
0.000122574
0
0
800
-0.000122574
0
0
794
0.000122574
0
0
108
-0.000122574
0
0
794
0.000122574
0
0
800
-0.000122574
0
0
1594
0.500138
0
0
800
-0.500138
0
0
794
0.000122574
0
0
112
-0.000122574
0
0
794
0.500138
0
0
800
-0.500138
0
0
1594
0.500138
0
0
800
-0.500138
0
0
794
0.000122574
0
0
112
-0.000122574
0
0
794
0.000122574
0
0
800
-0.000122574
0
0
1594
0.000122574
0
0
800
-0.000122574
0
0
794
0.000122574
0
0
112
-0.000122574
0
0
794
0.000122574
0
0
800
-0.000122574
0
0
1594
0.500138
0
0
800
-0.500138
0
0
794
0.000122574
0
0
108
-0.000122574
0
0
794
0.500138
0
0
800
-0.500138
0
0
1594
0.000122574
0
0
800
-0.000122574
0
0
794
0.000122574
0
0
108
-0.000122574
0
0
169

shape_id 3
num_samples 3991
3989

shape_id 4
num_samples 3991
0
0
43
0.0100712
0.033469
0.0333672
0.0333672
0
0.0335707
0.0333672
0.0335707
0.0333672
0.0333672
0
0.0335707
0.0333672
0.0335707
0.0333672
0.0333672
0
0.0335707
0.0333672
0.033469
0.033469
0
0.0333672
0.0335707
0.0333672
0.0335707
0.0333672
0.0333672
0
0.033469
0.033469
2
0.0333672
0.0333672
0
0.0101729
-0.0333672
-0.0335707
-0.0333672
-0.0335707
-0.0333672
-0.0333672
0
-0.0335707
-0.0333672
-0.0335707
-0.0333672
-0.0335707
-0.0333672
-0.0333672
0
-0.033469
-0.033469
2
-0.0333672
-0.0333672
0
-0.0335707
-0.0333672
-0.033469
-0.033469
2
-0.0333672
-0.0333672
0
-0.0335707
-0.0333672
-0.0201424
0
0
97
0.0100712
0.033469
0.0333672
0.0333672
0
0.0335707
0.0333672
0.0335707
0.0333672
0.0333672
0
0.0335707
0.0333672
0.0335707
0.0333672
0.0333672
0
0.0335707
0.0333672
0.033469
0.033469
0
0.0333672
0.0335707
0.0333672
0.0335707
0.0333672
0.0333672
0
0.033469
0.033469
2
0.0333672
0.0333672
0
0.0101729
-0.0333672
-0.0335707
-0.0333672
-0.0335707
-0.0333672
-0.0333672
0
-0.0335707
-0.0333672
-0.0335707
-0.0333672
-0.0335707
-0.0333672
-0.0333672
0
-0.033469
-0.033469
2
-0.0333672
-0.0333672
0
-0.0335707
-0.0333672
-0.033469
-0.033469
2
-0.0333672
-0.0333672
0
-0.0335707
-0.0333672
-0.0201424
0
0
17
0.0100712
0.033469
0.0333672
0.0333672
0
0.0335707
0.0333672
0.0335707
0.0333672
0.0333672
0
0.0335707
0.0333672
0.0335707
0.0333672
0.0333672
0
0.0335707
0.0333672
0.033469
0.033469
0
0.0333672
0.0335707
0.0333672
0.0335707
0.0333672
0.0333672
0
0.033469
0.033469
2
0.0333672
0.0333672
0
0.0101729
-0.0333672
-0.0335707
-0.0333672
-0.0335707
-0.0333672
-0.0333672
0
-0.0335707
-0.0333672
-0.0335707
-0.0333672
-0.0335707
-0.0333672
-0.0333672
0
-0.033469
-0.033469
2
-0.0333672
-0.0333672
0
-0.0335707
-0.0333672
-0.033469
-0.033469
2
-0.0333672
-0.0333672
0
-0.0335707
-0.0333672
-0.0201424
0
0
97
0.0100712
0.033469
0.0333672
0.0333672
0
0.0335707
0.0333672
0.0335707
0.0333672
0.0333672
0
0.0335707
0.0333672
0.0335707
0.0333672
0.0333672
0
0.0335707
0.0333672
0.033469
0.033469
0
0.0333672
0.0335707
0.0333672
0.0335707
0.0333672
0.0333672
0
0.033469
0.033469
2
0.0333672
0.0333672
0
0.0101729
-0.0333672
-0.0335707
-0.0333672
-0.0335707
-0.0333672
-0.0333672
0
-0.0335707
-0.0333672
-0.0335707
-0.0333672
-0.0335707
-0.0333672
-0.0333672
0
-0.033469
-0.033469
2
-0.0333672
-0.0333672
0
-0.0335707
-0.0333672
-0.033469
-0.033469
2
-0.0333672
-0.0333672
0
-0.0335707
-0.0333672
-0.0201424
0
0
28
0.00671414
0.0333672
0.0335707
0.0333672
0.0333672
0
0.0335707
0.0333672
0.0335707
0.0333672
0.0333672
0
0.0335707
0.0333672
0.0335707
0.0333672
0.0333672
0
0.0335707
0.0333672
0.033469
0.033469
0
0.0333672
0.0335707
0.0333672
0.0333672
0
0.0335707
0.0333672
0.033469
0.033469
0
0.0333672
0.0335707
0.0333672
0.0166836
-0.0333672
-0.0333672
0
-0.0335707
-0.0333672
-0.0335707
-0.0333672
-0.0333672
0
-0.0335707
-0.0333672
-0.0335707
-0.0333672
-0.0333672
0
-0.0335707
-0.0333672
-0.033469
-0.033469
0
-0.0333672
-0.0335707
-0.0333672
-0.0333672
0
-0.0335707
-0.0333672
-0.033469
-0.033469
0
-0.0333672
-0.0335707
-0.0333672
-0.0335707
-0.0333672
-0.0233978
0
0
97
0.00671414
0.0333672
0.0335707
0.0333672
0.0333672
0
0.0335707
0.0333672
0.0335707
0.0333672
0.0333672
0
0.0335707
0.0333672
0.0335707
0.0333672
0.0333672
0
0.0335707
0.0333672
0.033469
0.033469
0
0.0333672
0.0335707
0.0333672
0.0333672
0
0.0335707
0.0333672
0.033469
0.033469
0
0.0333672
0.0335707
0.0333672
0.0166836
-0.0333672
-0.0333672
0
-0.0335707
-0.0333672
-0.0335707
-0.0333672
-0.0333672
0
-0.0335707
-0.0333672
-0.0335707
-0.0333672
-0.0333672
0
-0.0335707
-0.0333672
-0.033469
-0.033469
0
-0.0333672
-0.0335707
-0.0333672
-0.0333672
0
-0.0335707
-0.0333672
-0.033469
-0.033469
0
-0.0333672
-0.0335707
-0.0333672
-0.0335707
-0.0333672
-0.0233978
0
0
17
0.00671414
0.0333672
0.0335707
0.0333672
0.0333672
0
0.0335707
0.0333672
0.0335707
0.0333672
0.0333672
0
0.0335707
0.0333672
0.0335707
0.0333672
0.0333672
0
0.0335707
0.0333672
0.033469
0.033469
0
0.0333672
0.0335707
0.0333672
0.0333672
0
0.0335707
0.0333672
0.033469
0.033469
0
0.0333672
0.0335707
0.0333672
0.0166836
-0.0333672
-0.0333672
0
-0.0335707
-0.0333672
-0.0335707
-0.0333672
-0.0333672
0
-0.0335707
-0.0333672
-0.0335707
-0.0333672
-0.0333672
0
-0.0335707
-0.0333672
-0.033469
-0.033469
0
-0.0333672
-0.0335707
-0.0333672
-0.0333672
0
-0.0335707
-0.0333672
-0.033469
-0.033469
0
-0.0333672
-0.0335707
-0.0333672
-0.0335707
-0.0333672
-0.0233978
0
0
97
0.00671414
0.0333672
0.0335707
0.0333672
0.0333672
0
0.0335707
0.0333672
0.0335707
0.0333672
0.0333672
0
0.0335707
0.0333672
0.0335707
0.0333672
0.0333672
0
0.0335707
0.0333672
0.033469
0.033469
0
0.0333672
0.0335707
0.0333672
0.0333672
0
0.0335707
0.0333672
0.033469
0.033469
0
0.0333672
0.0335707
0.0333672
0.0166836
-0.0333672
-0.0333672
0
-0.0335707
-0.0333672
-0.0335707
-0.0333672
-0.0333672
0
-0.0335707
-0.0333672
-0.0335707
-0.0333672
-0.0333672
0
-0.0335707
-0.0333672
-0.033469
-0.033469
0
-0.0333672
-0.0335707
-0.0333672
-0.0333672
0
-0.0335707
-0.0333672
-0.033469
-0.033469
0
-0.0333672
-0.0335707
-0.0333672
-0.0335707
-0.0333672
-0.0233978
0
0
28
0.00498474
0.0318413
0.0333672
0.0335707
0.0333672
0.0333672
0
0.0335707
0.0333672
0.033469
0.033469
0
0.0333672
0.0335707
0.0333672
0.0335707
0.0333672
0.0333672
0
0.033469
0.033469
2
0.0333672
0.0335707
0.0333672
0.0333672
0
0.0335707
0.0333672
0.033469
0.033469
0
0.0333672
0.0335707
0.0216684
-0.0318413
-0.0333672
-0.0335707
-0.0333672
-0.0333672
0
-0.033469
-0.033469
2
-0.0333672
-0.0335707
-0.0333672
-0.0333672
0
-0.033469
-0.033469
2
-0.0333672
-0.0333672
0
-0.0335707
-0.0333672
-0.0335707
-0.0333672
-0.0335707
-0.0333672
-0.0333672
0
-0.0335707
-0.0333672
-0.0335707
-0.0266531
0
0
97
0.00498474
0.0318413
0.0333672
0.0335707
0.0333672
0.0333672
0
0.0335707
0.0333672
0.033469
0.033469
0
0.0333672
0.0335707
0.0333672
0.0335707
0.0333672
0.0333672
0
0.033469
0.033469
2
0.0333672
0.0335707
0.0333672
0.0333672
0
0.0335707
0.0333672
0.033469
0.033469
0
0.0333672
0.0335707
0.0216684
-0.0318413
-0.0333672
-0.0335707
-0.0333672
-0.0333672
0
-0.033469
-0.033469
2
-0.0333672
-0.0335707
-0.0333672
-0.0333672
0
-0.033469
-0.033469
2
-0.0333672
-0.0333672
0
-0.0335707
-0.0333672
-0.0335707
-0.0333672
-0.0335707
-0.0333672
-0.0333672
0
-0.0335707
-0.0333672
-0.0335707
-0.0266531
0
0
17
0.00498474
0.0318413
0.0333672
0.0335707
0.0333672
0.0333672
0
0.0335707
0.0333672
0.033469
0.033469
0
0.0333672
0.0335707
0.0333672
0.0335707
0.0333672
0.0333672
0
0.033469
0.033469
2
0.0333672
0.0335707
0.0333672
0.0333672
0
0.0335707
0.0333672
0.033469
0.033469
0
0.0333672
0.0335707
0.0216684
-0.0318413
-0.0333672
-0.0335707
-0.0333672
-0.0333672
0
-0.033469
-0.033469
2
-0.0333672
-0.0335707
-0.0333672
-0.0333672
0
-0.033469
-0.033469
2
-0.0333672
-0.0333672
0
-0.0335707
-0.0333672
-0.0335707
-0.0333672
-0.0335707
-0.0333672
-0.0333672
0
-0.0335707
-0.0333672
-0.0335707
-0.0266531
0
0
97
0.00498474
0.0318413
0.0333672
0.0335707
0.0333672
0.0333672
0
0.0335707
0.0333672
0.033469
0.033469
0
0.0333672
0.0335707
0.0333672
0.0335707
0.0333672
0.0333672
0
0.033469
0.033469
2
0.0333672
0.0335707
0.0333672
0.0333672
0
0.0335707
0.0333672
0.033469
0.033469
0
0.0333672
0.0335707
0.0216684
-0.0318413
-0.0333672
-0.0335707
-0.0333672
-0.0333672
0
-0.033469
-0.033469
2
-0.0333672
-0.0335707
-0.0333672
-0.0333672
0
-0.033469
-0.033469
2
-0.0333672
-0.0333672
0
-0.0335707
-0.0333672
-0.0335707
-0.0333672
-0.0335707
-0.0333672
-0.0333672
0
-0.0335707
-0.0333672
-0.0335707
-0.0266531
0
0
29
0.0333672
0.0335707
0.0333672
0.0335707
0.0333672
0.0333672
0
0.0335707
0.0333672
0.033469
0.033469
2
0.0333672
0.0333672
0
0.0335707
0.0333672
0.033469
0.033469
0
0.0333672
0.0335707
0.0333672
0.0333672
0
0.0335707
0.0333672
0.0335707
0.0333672
0.0333672
0
0.0335707
0.0333672
0.0301119
-0.0333672
-0.0335707
-0.0333672
-0.0333672
0
-0.0335707
-0.0333672
-0.033469
-0.033469
0
-0.0333672
-0.0335707
-0.0333672
-0.0333672
0
-0.0335707
-0.0333672
-0.033469
-0.033469
0
-0.0333672
-0.0335707
-0.0333672
-0.0335707
-0.0333672
-0.0333672
0
-0.0335707
-0.0333672
-0.033469
-0.033469
0
-0.0333672
-0.0335707
-0.0333672
-0.0301119
0
0
98
0.0333672
0.0335707
0.0333672
0.0335707
0.0333672
0.0333672
0
0.0335707
0.0333672
0.033469
0.033469
2
0.0333672
0.0333672
0
0.0335707
0.0333672
0.033469
0.033469
0
0.0333672
0.0335707
0.0333672
0.0333672
0
0.0335707
0.0333672
0.0335707
0.0333672
0.0333672
0
0.0335707
0.0333672
0.0301119
-0.0333672
-0.0335707
-0.0333672
-0.0333672
0
-0.0335707
-0.0333672
-0.033469
-0.033469
0
-0.0333672
-0.0335707
-0.0333672
-0.0333672
0
-0.0335707
-0.0333672
-0.033469
-0.033469
0
-0.0333672
-0.0335707
-0.0333672
-0.0335707
-0.0333672
-0.0333672
0
-0.0335707
-0.0333672
-0.033469
-0.033469
0
-0.0333672
-0.0335707
-0.0333672
-0.0301119
0
0
18
0.0333672
0.0335707
0.0333672
0.0335707
0.0333672
0.0333672
0
0.0335707
0.0333672
0.033469
0.033469
2
0.0333672
0.0333672
0
0.0335707
0.0333672
0.033469
0.033469
0
0.0333672
0.0335707
0.0333672
0.0333672
0
0.0335707
0.0333672
0.0335707
0.0333672
0.0333672
0
0.0335707
0.0333672
0.0301119
-0.0333672
-0.0335707
-0.0333672
-0.0333672
0
-0.0335707
-0.0333672
-0.033469
-0.033469
0
-0.0333672
-0.0335707
-0.0333672
-0.0333672
0
-0.0335707
-0.0333672
-0.033469
-0.033469
0
-0.0333672
-0.0335707
-0.0333672
-0.0335707
-0.0333672
-0.0333672
0
-0.0335707
-0.0333672
-0.033469
-0.033469
0
-0.0333672
-0.0335707
-0.0333672
-0.0301119
0
0
98
0.0333672
0.0335707
0.0333672
0.0335707
0.0333672
0.0333672
0
0.0335707
0.0333672
0.033469
0.033469
2
0.0333672
0.0333672
0
0.0335707
0.0333672
0.033469
0.033469
0
0.0333672
0.0335707
0.0333672
0.0333672
0
0.0335707
0.0333672
0.0335707
0.0333672
0.0333672
0
0.0335707
0.0333672
0.0301119
-0.0333672
-0.0335707
-0.0333672
-0.0333672
0
-0.0335707
-0.0333672
-0.033469
-0.033469
0
-0.0333672
-0.0335707
-0.0333672
-0.0333672
0
-0.0335707
-0.0333672
-0.033469
-0.033469
0
-0.0333672
-0.0335707
-0.0333672
-0.0335707
-0.0333672
-0.0333672
0
-0.0335707
-0.0333672
-0.033469
-0.033469
0
-0.0333672
-0.0335707
-0.0333672
-0.0301119
0
0
28
0.0017294
0.0283825
0.0333672
0.0335707
0.0333672
0.0335707
0.0333672
0.0333672
0
0.033469
0.033469
2
0.0333672
0.0335707
0.0333672
0.0333672
0
0.0335707
0.0333672
0.033469
0.033469
0
0.0333672
0.0335707
0.0333672
0.0335707
0.0333672
0.0333672
0
0.0335707
0.0333672
0.033469
0.033469
0
0.0283825
-0.0251272
-0.0333672
-0.0335707
-0.0333672
-0.0333672
0
-0.033469
-0.033469
2
-0.0333672
-0.0335707
-0.0333672
-0.0333672
0
-0.0335707
-0.0333672
-0.0335707
-0.0333672
-0.0333672
0
-0.0335707
-0.0333672
-0.0335707
-0.0333672
-0.0333672
0
-0.0335707
-0.0333672
-0.033469
-0.033469
0
-0.0333672
-0.0335707
-0.0300102
-0.00335707
0
0
96
0.0017294
0.0283825
0.0333672
0.0335707
0.0333672
0.0335707
0.0333672
0.0333672
0
0.033469
0.033469
2
0.0333672
0.0335707
0.0333672
0.0333672
0
0.0335707
0.0333672
0.033469
0.033469
0
0.0333672
0.0335707
0.0333672
0.0335707
0.0333672
0.0333672
0
0.0335707
0.0333672
0.033469
0.033469
0
0.0283825
-0.0251272
-0.0333672
-0.0335707
-0.0333672
-0.0333672
0
-0.033469
-0.033469
2
-0.0333672
-0.0335707
-0.0333672
-0.0333672
0
-0.0335707
-0.0333672
-0.0335707
-0.0333672
-0.0333672
0
-0.0335707
-0.0333672
-0.0335707
-0.0333672
-0.0333672
0
-0.0335707
-0.0333672
-0.033469
-0.033469
0
-0.0333672
-0.0335707
-0.0300102
-0.00335707
0
0
16
0.0017294
0.0283825
0.0333672
0.0335707
0.0333672
0.0335707
0.0333672
0.0333672
0
0.033469
0.033469
2
0.0333672
0.0335707
0.0333672
0.0333672
0
0.0335707
0.0333672
0.033469
0.033469
0
0.0333672
0.0335707
0.0333672
0.0335707
0.0333672
0.0333672
0
0.0335707
0.0333672
0.033469
0.033469
0
0.0283825
-0.0251272
-0.0333672
-0.0335707
-0.0333672
-0.0333672
0
-0.033469
-0.033469
2
-0.0333672
-0.0335707
-0.0333672
-0.0333672
0
-0.0335707
-0.0333672
-0.0335707
-0.0333672
-0.0333672
0
-0.0335707
-0.0333672
-0.0335707
-0.0333672
-0.0333672
0
-0.0335707
-0.0333672
-0.033469
-0.033469
0
-0.0333672
-0.0335707
-0.0300102
-0.00335707
0
0
96
0.0017294
0.0283825
0.0333672
0.0335707
0.0333672
0.0335707
0.0333672
0.0333672
0
0.033469
0.033469
2
0.0333672
0.0335707
0.0333672
0.0333672
0
0.0335707
0.0333672
0.033469
0.033469
0
0.0333672
0.0335707
0.0333672
0.0335707
0.0333672
0.0333672
0
0.0335707
0.0333672
0.033469
0.033469
0
0.0283825
-0.0251272
-0.0333672
-0.0335707
-0.0333672
-0.0333672
0
-0.033469
-0.033469
2
-0.0333672
-0.0335707
-0.0333672
-0.0333672
0
-0.0335707
-0.0333672
-0.0335707
-0.0333672
-0.0333672
0
-0.0335707
-0.0333672
-0.0335707
-0.0333672
-0.0333672
0
-0.0335707
-0.0333672
-0.033469
-0.033469
0
-0.0333672
-0.0335707
-0.0300102
-0.00335707
0
0
28
0.0267548
0.033469
0.033469
1
0.0333672
0.0333672
0
0.0335707
0.0333672
0.033469
0.033469
2
0.0333672
0.0333672
0
0.0335707
0.0333672
0.0335707
0.0333672
0.0333672
0
0.0335707
0.0333672
0.0335707
0.0333672
0.0335707
0.0333672
0.0333672
0
0.033469
0.033469
2
-0.0234995
-0.033469
-0.0333672
-0.0333672
0
-0.0335707
-0.0333672
-0.033469
-0.033469
0
-0.0333672
-0.0335707
-0.0333672
-0.0335707
-0.0333672
-0.0333672
0
-0.0335707
-0.0333672
-0.033469
-0.033469
0
-0.0333672
-0.0335707
-0.0333672
-0.0335707
-0.0333672
-0.0333672
0
-0.033469
-0.033469
2
-0.0333672
-0.0333672
0
-0.0034588
0
0
97
0.0267548
0.033469
0.033469
1
0.0333672
0.0333672
0
0.0335707
0.0333672
0.033469
0.033469
2
0.0333672
0.0333672
0
0.0335707
0.0333672
0.0335707
0.0333672
0.0333672
0
0.0335707
0.0333672
0.0335707
0.0333672
0.0335707
0.0333672
0.0333672
0
0.033469
0.033469
2
-0.0234995
-0.033469
-0.0333672
-0.0333672
0
-0.0335707
-0.0333672
-0.033469
-0.033469
0
-0.0333672
-0.0335707
-0.0333672
-0.0335707
-0.0333672
-0.0333672
0
-0.0335707
-0.0333672
-0.033469
-0.033469
0
-0.0333672
-0.0335707
-0.0333672
-0.0335707
-0.0333672
-0.0333672
0
-0.033469
-0.033469
2
-0.0333672
-0.0333672
0
-0.0034588
0
0
17
0.0267548
0.033469
0.033469
1
0.0333672
0.0333672
0
0.0335707
0.0333672
0.033469
0.033469
2
0.0333672
0.0333672
0
0.0335707
0.0333672
0.0335707
0.0333672
0.0333672
0
0.0335707
0.0333672
0.0335707
0.0333672
0.0335707
0.0333672
0.0333672
0
0.033469
0.033469
2
-0.0234995
-0.033469
-0.0333672
-0.0333672
0
-0.0335707
-0.0333672
-0.033469
-0.033469
0
-0.0333672
-0.0335707
-0.0333672
-0.0335707
-0.0333672
-0.0333672
0
-0.0335707
-0.0333672
-0.033469
-0.033469
0
-0.0333672
-0.0335707
-0.0333672
-0.0335707
-0.0333672
-0.0333672
0
-0.033469
-0.033469
2
-0.0333672
-0.0333672
0
-0.0034588
0
0
97
0.0267548
0.033469
0.033469
1
0.0333672
0.0333672
0
0.0335707
0.0333672
0.033469
0.033469
2
0.0333672
0.0333672
0
0.0335707
0.0333672
0.0335707
0.0333672
0.0333672
0
0.0335707
0.0333672
0.0335707
0.0333672
0.0335707
0.0333672
0.0333672
0
0.033469
0.033469
2
